-0.528
-0.528
-0.528
-0.528
-0.528
-0.528
-0.528
-0.528
-0.389
-0.389
-0.389
-0.389
-0.466
-0.466
-0.466
-0.466
-0.412
-0.412
-0.412
-0.412
-0.551
-0.551
-0.551
-0.551
-0.435
-0.435
-0.435
-0.435
-0.490
-0.490
-0.490
-0.490
-0.281
-0.281
-0.281
-0.281
-0.412
-0.412
-0.412
-0.412
-0.350
-0.350
-0.350
-0.350
-0.536
-0.536
-0.536
-0.536
-0.258
-0.258
-0.258
-0.258
-0.412
-0.412
-0.412
-0.412
-0.234
-0.234
-0.234
-0.234
-0.366
-0.366
-0.366
-0.366
-0.312
-0.312
-0.312
-0.312
-0.559
-0.559
-0.559
-0.559
-0.366
-0.366
-0.366
-0.366
-0.343
-0.343
-0.343
-0.343
-0.327
-0.327
-0.327
-0.327
-0.366
-0.366
-0.366
-0.366
-0.428
-0.428
-0.428
-0.428
-0.389
-0.389
-0.389
-0.389
-0.799
-0.799
-0.799
-0.799
-1.758
-1.758
-1.758
-1.758
-1.379
-1.379
-1.379
-1.379
-0.722
-0.722
-0.722
-0.722
1.521
1.521
1.521
1.521
5.418
5.418
5.418
5.418
11.256
11.256
11.256
11.256
11.101
11.101
11.101
11.101
13.004
13.004
13.004
13.004
9.431
9.431
9.431
9.431
3.199
3.199
3.199
3.199
-0.482
-0.482
-0.482
-0.482
-1.820
-1.820
-1.820
-1.820
-2.693
-2.693
-2.693
-2.693
-3.065
-3.065
-3.065
-3.065
-3.281
-3.281
-3.281
-3.281
-3.188
-3.188
-3.188
-3.188
-2.778
-2.778
-2.778
-2.778
-2.438
-2.438
-2.438
-2.438
-1.959
-1.959
-1.959
-1.959
-1.796
-1.796
-1.796
-1.796
-1.402
-1.402
-1.402
-1.402
-1.332
-1.332
-1.332
-1.332
-1.015
-1.015
-1.015
-1.015
-1.216
-1.216
-1.216
-1.216
-1.070
-1.070
-1.070
-1.070
-1.332
-1.332
-1.332
-1.332
-1.100
-1.100
-1.100
-1.100
-1.224
-1.224
-1.224
-1.224
-1.046
-1.046
-1.046
-1.046
-1.332
-1.332
-1.332
-1.332
-1.178
-1.178
-1.178
-1.178
-1.379
-1.379
-1.379
-1.379
-1.131
-1.131
-1.131
-1.131
-1.147
-1.147
-1.147
-1.147
-1.100
-1.100
-1.100
-1.100
-1.278
-1.278
-1.278
-1.278
-1.224
-1.224
-1.224
-1.224
-1.240
-1.240
-1.240
-1.240
-1.170
-1.170
-1.170
-1.170
-1.116
-1.116
-1.116
-1.116
-1.147
-1.147
-1.147
-1.147
-1.201
-1.201
-1.201
-1.201
-1.255
-1.255
-1.255
-1.255
-1.155
-1.155
-1.155
-1.155
-1.170
-1.170
-1.170
-1.170
-1.116
-1.116
-1.116
-1.116
-1.232
-1.232
-1.232
-1.232
-1.178
-1.178
-1.178
-1.178
-1.209
-1.209
-1.209
-1.209
-1.100
-1.100
-1.100
-1.100
-1.008
-1.008
-1.008
-1.008
-1.023
-1.023
-1.023
-1.023
-1.046
-1.046
-1.046
-1.046
-1.031
-1.031
-1.031
-1.031
-0.992
-0.992
-0.992
-0.992
-0.892
-0.892
-0.892
-0.892
-0.915
-0.915
-0.915
-0.915
-0.869
-0.869
-0.869
-0.869
-1.023
-1.023
-1.023
-1.023
-0.853
-0.853
-0.853
-0.853
-0.946
-0.946
-0.946
-0.946
-0.706
-0.706
-0.706
-0.706
-0.985
-0.985
-0.985
-0.985
-0.830
-0.830
-0.830
-0.830
-1.031
-1.031
-1.031
-1.031
-0.776
-0.776
-0.776
-0.776
-0.961
-0.961
-0.961
-0.961
-0.644
-0.644
-0.644
-0.644
-0.861
-0.861
-0.861
-0.861
-0.714
-0.714
-0.714
-0.714
-0.845
-0.845
-0.845
-0.845
-0.644
-0.644
-0.644
-0.644
-0.698
-0.698
-0.698
-0.698
-0.667
-0.667
-0.667
-0.667
-0.729
-0.729
-0.729
-0.729
-0.714
-0.714
-0.714
-0.714
-0.683
-0.683
-0.683
-0.683
-0.691
-0.691
-0.691
-0.691
-0.629
-0.629
-0.629
-0.629
-0.760
-0.760
-0.760
-0.760
-0.714
-0.714
-0.714
-0.714
-0.830
-0.830
-0.830
-0.830
-0.737
-0.737
-0.737
-0.737
-0.722
-0.722
-0.722
-0.722
-0.660
-0.660
-0.660
-0.660
-0.814
-0.814
-0.814
-0.814
-0.768
-0.768
-0.768
-0.768
-0.706
-0.706
-0.706
-0.706
-0.629
-0.629
-0.629
-0.629
-0.544
-0.544
-0.544
-0.544
-0.590
-0.590
-0.590
-0.590
-0.629
-0.629
-0.629
-0.629
-0.691
-0.691
-0.691
-0.691
-0.629
-0.629
-0.629
-0.629
-0.590
-0.590
-0.590
-0.590
-0.706
-0.706
-0.706
-0.706
-0.660
-0.660
-0.660
-0.660
-0.807
-0.807
-0.807
-0.807
-0.652
-0.652
-0.652
-0.652
-0.799
-0.799
-0.799
-0.799
-0.497
-0.497
-0.497
-0.497
-0.714
-0.714
-0.714
-0.714
-0.551
-0.551
-0.551
-0.551
-0.783
-0.783
-0.783
-0.783
-0.497
-0.497
-0.497
-0.497
-0.706
-0.706
-0.706
-0.706
-0.528
-0.528
-0.528
-0.528
-0.729
-0.729
-0.729
-0.729
-0.637
-0.637
-0.637
-0.637
-0.814
-0.814
-0.814
-0.814
-0.644
-0.644
-0.644
-0.644
-0.644
-0.644
-0.644
-0.644
-0.660
-0.660
-0.660
-0.660
-0.737
-0.737
-0.737
-0.737
-0.768
-0.768
-0.768
-0.768
-0.737
-0.737
-0.737
-0.737
-0.667
-0.667
-0.667
-0.667
-0.613
-0.613
-0.613
-0.613
-0.745
-0.745
-0.745
-0.745
-0.667
-0.667
-0.667
-0.667
-0.698
-0.698
-0.698
-0.698
-0.652
-0.652
-0.652
-0.652
-0.621
-0.621
-0.621
-0.621
-0.613
-0.613
-0.613
-0.613
-0.683
-0.683
-0.683
-0.683
-0.745
-0.745
-0.745
-0.745
-0.675
-0.675
-0.675
-0.675
-0.683
-0.683
-0.683
-0.683
-0.575
-0.575
-0.575
-0.575
-0.691
-0.691
-0.691
-0.691
-0.698
-0.698
-0.698
-0.698
-0.799
-0.799
-0.799
-0.799
-0.691
-0.691
-0.691
-0.691
-0.590
-0.590
-0.590
-0.590
-0.675
-0.675
-0.675
-0.675
-0.613
-0.613
-0.613
-0.613
-0.776
-0.776
-0.776
-0.776
-0.559
-0.559
-0.559
-0.559
-0.729
-0.729
-0.729
-0.729
-0.435
-0.435
-0.435
-0.435
-0.660
-0.660
-0.660
-0.660
-0.528
-0.528
-0.528
-0.528
-0.822
-0.822
-0.822
-0.822
-0.435
-0.435
-0.435
-0.435
-0.683
-0.683
-0.683
-0.683
-0.466
-0.466
-0.466
-0.466
-0.753
-0.753
-0.753
-0.753
-0.590
-0.590
-0.590
-0.590
-0.760
-0.760
-0.760
-0.760
-0.575
-0.575
-0.575
-0.575
-0.505
-0.505
-0.505
-0.505
-0.490
-0.490
-0.490
-0.490
-0.621
-0.621
-0.621
-0.621
-0.575
-0.575
-0.575
-0.575
-0.521
-0.521
-0.521
-0.521
-0.513
-0.513
-0.513
-0.513
-0.459
-0.459
-0.459
-0.459
-0.513
-0.513
-0.513
-0.513
-0.528
-0.528
-0.528
-0.528
-0.567
-0.567
-0.567
-0.567
-0.435
-0.435
-0.435
-0.435
-0.505
-0.505
-0.505
-0.505
-0.521
-0.521
-0.521
-0.521
-0.590
-0.590
-0.590
-0.590
-0.629
-0.629
-0.629
-0.629
-0.544
-0.544
-0.544
-0.544
-0.505
-0.505
-0.505
-0.505
-0.420
-0.420
-0.420
-0.420
-0.466
-0.466
-0.466
-0.466
-0.513
-0.513
-0.513
-0.513
-0.551
-0.551
-0.551
-0.551
-0.505
-0.505
-0.505
-0.505
-0.474
-0.474
-0.474
-0.474
-0.536
-0.536
-0.536
-0.536
-0.273
-0.273
-0.273
-0.273
-0.466
-0.466
-0.466
-0.466
-0.049
-0.049
-0.049
-0.049
-0.211
-0.211
-0.211
-0.211
0.090
0.090
0.090
0.090
-0.126
-0.126
-0.126
-0.126
0.083
0.083
0.083
0.083
0.028
0.028
0.028
0.028
0.601
0.601
0.601
0.601
0.199
0.199
0.199
0.199
0.036
0.036
0.036
0.036
0.005
0.005
0.005
0.005
0.206
0.206
0.206
0.206
0.353
0.353
0.353
0.353
0.740
0.740
0.740
0.740
0.740
0.740
0.740
0.740
0.601
0.601
0.601
0.601
-0.095
-0.095
-0.095
-0.095
-0.304
-0.304
-0.304
-0.304
-0.188
-0.188
-0.188
-0.188
-0.613
-0.613
-0.613
-0.613
-0.675
-0.675
-0.675
-0.675
-0.799
-0.799
-0.799
-0.799
-0.915
-0.915
-0.915
-0.915
-0.899
-0.899
-0.899
-0.899
-0.753
-0.753
-0.753
-0.753
-0.714
-0.714
-0.714
-0.714
-0.683
-0.683
-0.683
-0.683
-0.807
-0.807
-0.807
-0.807
-0.667
-0.667
-0.667
-0.667
-0.451
-0.451
-0.451
-0.451
-0.551
-0.551
-0.551
-0.551
-0.405
-0.405
-0.405
-0.405
-0.521
-0.521
-0.521
-0.521
-0.536
-0.536
-0.536
-0.536
-0.528
-0.528
-0.528
-0.528
-0.435
-0.435
-0.435
-0.435
-0.397
-0.397
-0.397
-0.397
-0.582
-0.582
-0.582
-0.582
-0.397
-0.397
-0.397
-0.397
-0.683
-0.683
-0.683
-0.683
-0.405
-0.405
-0.405
-0.405
-0.582
-0.582
-0.582
-0.582
-0.281
-0.281
-0.281
-0.281
-0.551
-0.551
-0.551
-0.551
-0.350
-0.350
-0.350
-0.350
-0.582
-0.582
-0.582
-0.582
-0.204
-0.204
-0.204
-0.204
-0.443
-0.443
-0.443
-0.443
-0.320
-0.320
-0.320
-0.320
-0.528
-0.528
-0.528
-0.528
-0.482
-0.482
-0.482
-0.482
-0.528
-0.528
-0.528
-0.528
-0.273
-0.273
-0.273
-0.273
-0.350
-0.350
-0.350
-0.350
-0.381
-0.381
-0.381
-0.381
-0.358
-0.358
-0.358
-0.358
-0.613
-0.613
-0.613
-0.613
-1.673
-1.673
-1.673
-1.673
-1.371
-1.371
-1.371
-1.371
-0.737
-0.737
-0.737
-0.737
1.250
1.250
1.250
1.250
4.451
4.451
4.451
4.451
10.305
10.305
10.305
10.305
11.473
11.473
11.473
11.473
12.370
12.370
12.370
12.370
10.305
10.305
10.305
10.305
4.243
4.243
4.243
4.243
-0.327
-0.327
-0.327
-0.327
-1.735
-1.735
-1.735
-1.735
-2.686
-2.686
-2.686
-2.686
-2.964
-2.964
-2.964
-2.964
-3.304
-3.304
-3.304
-3.304
-3.242
-3.242
-3.242
-3.242
-3.010
-3.010
-3.010
-3.010
-2.570
-2.570
-2.570
-2.570
-1.997
-1.997
-1.997
-1.997
-1.773
-1.773
-1.773
-1.773
-1.456
-1.456
-1.456
-1.456
-1.549
-1.549
-1.549
-1.549
-1.178
-1.178
-1.178
-1.178
-1.325
-1.325
-1.325
-1.325
-1.023
-1.023
-1.023
-1.023
-1.340
-1.340
-1.340
-1.340
-1.193
-1.193
-1.193
-1.193
-1.394
-1.394
-1.394
-1.394
-1.100
-1.100
-1.100
-1.100
-1.356
-1.356
-1.356
-1.356
-1.240
-1.240
-1.240
-1.240
-1.418
-1.418
-1.418
-1.418
-1.325
-1.325
-1.325
-1.325
-1.332
-1.332
-1.332
-1.332
-1.209
-1.209
-1.209
-1.209
-1.201
-1.201
-1.201
-1.201
-1.240
-1.240
-1.240
-1.240
-1.348
-1.348
-1.348
-1.348
-1.263
-1.263
-1.263
-1.263
-1.240
-1.240
-1.240
-1.240
-1.178
-1.178
-1.178
-1.178
-1.193
-1.193
-1.193
-1.193
-1.278
-1.278
-1.278
-1.278
-1.209
-1.209
-1.209
-1.209
-1.286
-1.286
-1.286
-1.286
-1.178
-1.178
-1.178
-1.178
-1.186
-1.186
-1.186
-1.186
-1.193
-1.193
-1.193
-1.193
-1.170
-1.170
-1.170
-1.170
-1.247
-1.247
-1.247
-1.247
-1.263
-1.263
-1.263
-1.263
-1.062
-1.062
-1.062
-1.062
-0.930
-0.930
-0.930
-0.930
-1.100
-1.100
-1.100
-1.100
-1.077
-1.077
-1.077
-1.077
-1.015
-1.015
-1.015
-1.015
-1.054
-1.054
-1.054
-1.054
-0.923
-0.923
-0.923
-0.923
-0.954
-0.954
-0.954
-0.954
-0.861
-0.861
-0.861
-0.861
-1.170
-1.170
-1.170
-1.170
-0.845
-0.845
-0.845
-0.845
-1.108
-1.108
-1.108
-1.108
-0.822
-0.822
-0.822
-0.822
-1.131
-1.131
-1.131
-1.131
-0.768
-0.768
-0.768
-0.768
-1.155
-1.155
-1.155
-1.155
-0.884
-0.884
-0.884
-0.884
-0.861
-0.861
-0.861
-0.861
-0.838
-0.838
-0.838
-0.838
-0.838
-0.838
-0.838
-0.838
-0.783
-0.783
-0.783
-0.783
-0.675
-0.675
-0.675
-0.675
-0.637
-0.637
-0.637
-0.637
-0.822
-0.822
-0.822
-0.822
-0.768
-0.768
-0.768
-0.768
-0.853
-0.853
-0.853
-0.853
-0.907
-0.907
-0.907
-0.907
-0.652
-0.652
-0.652
-0.652
-0.760
-0.760
-0.760
-0.760
-0.706
-0.706
-0.706
-0.706
-0.907
-0.907
-0.907
-0.907
-0.799
-0.799
-0.799
-0.799
-0.791
-0.791
-0.791
-0.791
-0.838
-0.838
-0.838
-0.838
-0.667
-0.667
-0.667
-0.667
-0.722
-0.722
-0.722
-0.722
-0.776
-0.776
-0.776
-0.776
-0.745
-0.745
-0.745
-0.745
-0.598
-0.598
-0.598
-0.598
-0.613
-0.613
-0.613
-0.613
-0.482
-0.482
-0.482
-0.482
-0.691
-0.691
-0.691
-0.691
-0.760
-0.760
-0.760
-0.760
-0.737
-0.737
-0.737
-0.737
-0.683
-0.683
-0.683
-0.683
-0.683
-0.683
-0.683
-0.683
-0.915
-0.915
-0.915
-0.915
-0.660
-0.660
-0.660
-0.660
-0.884
-0.884
-0.884
-0.884
-0.745
-0.745
-0.745
-0.745
-0.799
-0.799
-0.799
-0.799
-0.613
-0.613
-0.613
-0.613
-0.706
-0.706
-0.706
-0.706
-0.644
-0.644
-0.644
-0.644
-0.853
-0.853
-0.853
-0.853
-0.637
-0.637
-0.637
-0.637
-0.737
-0.737
-0.737
-0.737
-0.644
-0.644
-0.644
-0.644
-0.838
-0.838
-0.838
-0.838
-0.737
-0.737
-0.737
-0.737
-0.675
-0.675
-0.675
-0.675
-0.567
-0.567
-0.567
-0.567
-0.652
-0.652
-0.652
-0.652
-0.807
-0.807
-0.807
-0.807
-0.799
-0.799
-0.799
-0.799
-0.876
-0.876
-0.876
-0.876
-0.876
-0.876
-0.876
-0.876
-0.683
-0.683
-0.683
-0.683
-0.637
-0.637
-0.637
-0.637
-0.830
-0.830
-0.830
-0.830
-0.660
-0.660
-0.660
-0.660
-0.691
-0.691
-0.691
-0.691
-0.567
-0.567
-0.567
-0.567
-0.691
-0.691
-0.691
-0.691
-0.598
-0.598
-0.598
-0.598
-0.807
-0.807
-0.807
-0.807
-0.807
-0.807
-0.807
-0.807
-0.814
-0.814
-0.814
-0.814
-0.737
-0.737
-0.737
-0.737
-0.698
-0.698
-0.698
-0.698
-0.729
-0.729
-0.729
-0.729
-0.814
-0.814
-0.814
-0.814
-0.683
-0.683
-0.683
-0.683
-0.791
-0.791
-0.791
-0.791
-0.706
-0.706
-0.706
-0.706
-0.830
-0.830
-0.830
-0.830
-0.660
-0.660
-0.660
-0.660
-0.760
-0.760
-0.760
-0.760
-0.459
-0.459
-0.459
-0.459
-0.722
-0.722
-0.722
-0.722
-0.490
-0.490
-0.490
-0.490
-0.714
-0.714
-0.714
-0.714
-0.644
-0.644
-0.644
-0.644
-0.745
-0.745
-0.745
-0.745
-0.590
-0.590
-0.590
-0.590
-0.830
-0.830
-0.830
-0.830
-0.629
-0.629
-0.629
-0.629
-0.745
-0.745
-0.745
-0.745
-0.629
-0.629
-0.629
-0.629
-0.590
-0.590
-0.590
-0.590
-0.497
-0.497
-0.497
-0.497
-0.683
-0.683
-0.683
-0.683
-0.667
-0.667
-0.667
-0.667
-0.598
-0.598
-0.598
-0.598
-0.637
-0.637
-0.637
-0.637
-0.598
-0.598
-0.598
-0.598
-0.536
-0.536
-0.536
-0.536
-0.497
-0.497
-0.497
-0.497
-0.783
-0.783
-0.783
-0.783
-0.737
-0.737
-0.737
-0.737
-0.652
-0.652
-0.652
-0.652
-0.536
-0.536
-0.536
-0.536
-0.304
-0.304
-0.304
-0.304
-0.691
-0.691
-0.691
-0.691
-0.536
-0.536
-0.536
-0.536
-0.907
-0.907
-0.907
-0.907
-0.590
-0.590
-0.590
-0.590
-0.606
-0.606
-0.606
-0.606
-0.598
-0.598
-0.598
-0.598
-0.544
-0.544
-0.544
-0.544
-0.590
-0.590
-0.590
-0.590
-0.521
-0.521
-0.521
-0.521
-0.660
-0.660
-0.660
-0.660
-0.358
-0.358
-0.358
-0.358
-0.435
-0.435
-0.435
-0.435
-0.111
-0.111
-0.111
-0.111
-0.397
-0.397
-0.397
-0.397
-0.057
-0.057
-0.057
-0.057
-0.296
-0.296
-0.296
-0.296
-0.033
-0.033
-0.033
-0.033
-0.033
-0.033
-0.033
-0.033
0.454
0.454
0.454
0.454
-0.165
-0.165
-0.165
-0.165
0.067
0.067
0.067
0.067
-0.002
-0.002
-0.002
-0.002
0.307
0.307
0.307
0.307
0.307
0.307
0.307
0.307
0.516
0.516
0.516
0.516
0.446
0.446
0.446
0.446
0.322
0.322
0.322
0.322
-0.180
-0.180
-0.180
-0.180
-0.134
-0.134
-0.134
-0.134
-0.397
-0.397
-0.397
-0.397
-0.961
-0.961
-0.961
-0.961
-0.753
-0.753
-0.753
-0.753
-0.822
-0.822
-0.822
-0.822
-0.915
-0.915
-0.915
-0.915
-1.015
-1.015
-1.015
-1.015
-0.869
-0.869
-0.869
-0.869
-0.822
-0.822
-0.822
-0.822
-0.768
-0.768
-0.768
-0.768
-0.783
-0.783
-0.783
-0.783
-0.722
-0.722
-0.722
-0.722
-0.729
-0.729
-0.729
-0.729
-0.405
-0.405
-0.405
-0.405
-0.497
-0.497
-0.497
-0.497
-0.497
-0.497
-0.497
-0.497
-0.551
-0.551
-0.551
-0.551
-0.667
-0.667
-0.667
-0.667
-0.598
-0.598
-0.598
-0.598
-0.443
-0.443
-0.443
-0.443
-0.381
-0.381
-0.381
-0.381
-0.358
-0.358
-0.358
-0.358
-0.637
-0.637
-0.637
-0.637
-0.459
-0.459
-0.459
-0.459
-0.652
-0.652
-0.652
-0.652
-0.273
-0.273
-0.273
-0.273
-0.644
-0.644
-0.644
-0.644
-0.389
-0.389
-0.389
-0.389
-0.652
-0.652
-0.652
-0.652
-0.482
-0.482
-0.482
-0.482
-0.691
-0.691
-0.691
-0.691
-0.474
-0.474
-0.474
-0.474
-0.652
-0.652
-0.652
-0.652
-0.505
-0.505
-0.505
-0.505
-0.350
-0.350
-0.350
-0.350
-0.234
-0.234
-0.234
-0.234
-0.327
-0.327
-0.327
-0.327
-0.497
-0.497
-0.497
-0.497
-0.567
-0.567
-0.567
-0.567
-1.178
-1.178
-1.178
-1.178
-2.098
-2.098
-2.098
-2.098
-2.129
-2.129
-2.129
-2.129
-1.487
-1.487
-1.487
-1.487
0.918
0.918
0.918
0.918
4.274
4.274
4.274
4.274
10.552
10.552
10.552
10.552
9.841
9.841
9.841
9.841
10.607
10.607
10.607
10.607
8.380
8.380
8.380
8.380
2.804
2.804
2.804
2.804
-0.227
-0.227
-0.227
-0.227
-1.796
-1.796
-1.796
-1.796
-2.531
-2.531
-2.531
-2.531
-2.531
-2.531
-2.531
-2.531
-2.887
-2.887
-2.887
-2.887
-2.717
-2.717
-2.717
-2.717
-2.454
-2.454
-2.454
-2.454
-1.967
-1.967
-1.967
-1.967
-1.704
-1.704
-1.704
-1.704
-1.240
-1.240
-1.240
-1.240
-1.023
-1.023
-1.023
-1.023
-1.209
-1.209
-1.209
-1.209
-1.015
-1.015
-1.015
-1.015
-1.209
-1.209
-1.209
-1.209
-0.930
-0.930
-0.930
-0.930
-1.108
-1.108
-1.108
-1.108
-0.930
-0.930
-0.930
-0.930
-1.387
-1.387
-1.387
-1.387
-1.232
-1.232
-1.232
-1.232
-1.387
-1.387
-1.387
-1.387
-1.286
-1.286
-1.286
-1.286
-1.240
-1.240
-1.240
-1.240
-1.356
-1.356
-1.356
-1.356
-1.619
-1.619
-1.619
-1.619
-1.441
-1.441
-1.441
-1.441
-1.302
-1.302
-1.302
-1.302
-1.186
-1.186
-1.186
-1.186
-1.448
-1.448
-1.448
-1.448
-1.379
-1.379
-1.379
-1.379
-1.302
-1.302
-1.302
-1.302
-1.302
-1.302
-1.302
-1.302
-1.263
-1.263
-1.263
-1.263
-1.379
-1.379
-1.379
-1.379
-1.224
-1.224
-1.224
-1.224
-1.294
-1.294
-1.294
-1.294
-1.309
-1.309
-1.309
-1.309
-1.216
-1.216
-1.216
-1.216
-1.216
-1.216
-1.216
-1.216
-1.216
-1.216
-1.216
-1.216
-1.186
-1.186
-1.186
-1.186
-1.286
-1.286
-1.286
-1.286
-1.170
-1.170
-1.170
-1.170
-1.000
-1.000
-1.000
-1.000
-1.209
-1.209
-1.209
-1.209
-0.977
-0.977
-0.977
-0.977
-0.946
-0.946
-0.946
-0.946
-1.070
-1.070
-1.070
-1.070
-1.108
-1.108
-1.108
-1.108
-0.977
-0.977
-0.977
-0.977
-0.845
-0.845
-0.845
-0.845
-0.977
-0.977
-0.977
-0.977
-0.977
-0.977
-0.977
-0.977
-1.162
-1.162
-1.162
-1.162
-0.799
-0.799
-0.799
-0.799
-1.015
-1.015
-1.015
-1.015
-0.853
-0.853
-0.853
-0.853
-1.193
-1.193
-1.193
-1.193
-0.930
-0.930
-0.930
-0.930
-1.070
-1.070
-1.070
-1.070
-0.954
-0.954
-0.954
-0.954
-1.000
-1.000
-1.000
-1.000
-0.791
-0.791
-0.791
-0.791
-1.008
-1.008
-1.008
-1.008
-0.698
-0.698
-0.698
-0.698
-0.737
-0.737
-0.737
-0.737
-0.675
-0.675
-0.675
-0.675
-0.768
-0.768
-0.768
-0.768
-0.737
-0.737
-0.737
-0.737
-0.923
-0.923
-0.923
-0.923
-0.799
-0.799
-0.799
-0.799
-0.722
-0.722
-0.722
-0.722
-0.961
-0.961
-0.961
-0.961
-0.876
-0.876
-0.876
-0.876
-0.869
-0.869
-0.869
-0.869
-0.892
-0.892
-0.892
-0.892
-0.899
-0.899
-0.899
-0.899
-0.745
-0.745
-0.745
-0.745
-0.729
-0.729
-0.729
-0.729
-0.838
-0.838
-0.838
-0.838
-0.675
-0.675
-0.675
-0.675
-0.807
-0.807
-0.807
-0.807
-0.760
-0.760
-0.760
-0.760
-0.698
-0.698
-0.698
-0.698
-0.691
-0.691
-0.691
-0.691
-0.838
-0.838
-0.838
-0.838
-0.814
-0.814
-0.814
-0.814
-0.814
-0.814
-0.814
-0.814
-0.714
-0.714
-0.714
-0.714
-0.830
-0.830
-0.830
-0.830
-0.845
-0.845
-0.845
-0.845
-0.822
-0.822
-0.822
-0.822
-0.892
-0.892
-0.892
-0.892
-0.675
-0.675
-0.675
-0.675
-0.582
-0.582
-0.582
-0.582
-0.606
-0.606
-0.606
-0.606
-0.985
-0.985
-0.985
-0.985
-0.714
-0.714
-0.714
-0.714
-0.853
-0.853
-0.853
-0.853
-0.637
-0.637
-0.637
-0.637
-0.753
-0.753
-0.753
-0.753
-0.652
-0.652
-0.652
-0.652
-0.961
-0.961
-0.961
-0.961
-0.768
-0.768
-0.768
-0.768
-0.838
-0.838
-0.838
-0.838
-0.737
-0.737
-0.737
-0.737
-0.845
-0.845
-0.845
-0.845
-0.845
-0.845
-0.845
-0.845
-0.876
-0.876
-0.876
-0.876
-0.861
-0.861
-0.861
-0.861
-0.745
-0.745
-0.745
-0.745
-0.714
-0.714
-0.714
-0.714
-0.768
-0.768
-0.768
-0.768
-0.861
-0.861
-0.861
-0.861
-0.760
-0.760
-0.760
-0.760
-0.722
-0.722
-0.722
-0.722
-0.691
-0.691
-0.691
-0.691
-0.675
-0.675
-0.675
-0.675
-0.753
-0.753
-0.753
-0.753
-0.783
-0.783
-0.783
-0.783
-0.799
-0.799
-0.799
-0.799
-0.753
-0.753
-0.753
-0.753
-0.745
-0.745
-0.745
-0.745
-0.776
-0.776
-0.776
-0.776
-0.799
-0.799
-0.799
-0.799
-0.807
-0.807
-0.807
-0.807
-0.783
-0.783
-0.783
-0.783
-0.706
-0.706
-0.706
-0.706
-0.598
-0.598
-0.598
-0.598
-0.783
-0.783
-0.783
-0.783
-0.652
-0.652
-0.652
-0.652
-0.799
-0.799
-0.799
-0.799
-0.598
-0.598
-0.598
-0.598
-0.753
-0.753
-0.753
-0.753
-0.551
-0.551
-0.551
-0.551
-0.853
-0.853
-0.853
-0.853
-0.667
-0.667
-0.667
-0.667
-0.814
-0.814
-0.814
-0.814
-0.551
-0.551
-0.551
-0.551
-0.745
-0.745
-0.745
-0.745
-0.660
-0.660
-0.660
-0.660
-0.814
-0.814
-0.814
-0.814
-0.722
-0.722
-0.722
-0.722
-0.660
-0.660
-0.660
-0.660
-0.513
-0.513
-0.513
-0.513
-0.683
-0.683
-0.683
-0.683
-0.637
-0.637
-0.637
-0.637
-0.660
-0.660
-0.660
-0.660
-0.582
-0.582
-0.582
-0.582
-0.505
-0.505
-0.505
-0.505
-0.544
-0.544
-0.544
-0.544
-0.575
-0.575
-0.575
-0.575
-0.644
-0.644
-0.644
-0.644
-0.629
-0.629
-0.629
-0.629
-0.521
-0.521
-0.521
-0.521
-0.536
-0.536
-0.536
-0.536
-0.598
-0.598
-0.598
-0.598
-0.660
-0.660
-0.660
-0.660
-0.667
-0.667
-0.667
-0.667
-0.644
-0.644
-0.644
-0.644
-0.505
-0.505
-0.505
-0.505
-0.513
-0.513
-0.513
-0.513
-0.582
-0.582
-0.582
-0.582
-0.667
-0.667
-0.667
-0.667
-0.559
-0.559
-0.559
-0.559
-0.374
-0.374
-0.374
-0.374
-0.242
-0.242
-0.242
-0.242
-0.080
-0.080
-0.080
-0.080
-0.196
-0.196
-0.196
-0.196
-0.103
-0.103
-0.103
-0.103
-0.250
-0.250
-0.250
-0.250
0.121
0.121
0.121
0.121
-0.018
-0.018
-0.018
-0.018
0.315
0.315
0.315
0.315
-0.033
-0.033
-0.033
-0.033
-0.273
-0.273
-0.273
-0.273
-0.219
-0.219
-0.219
-0.219
0.152
0.152
0.152
0.152
0.284
0.284
0.284
0.284
0.508
0.508
0.508
0.508
0.384
0.384
0.384
0.384
0.446
0.446
0.446
0.446
0.036
0.036
0.036
0.036
-0.180
-0.180
-0.180
-0.180
-0.234
-0.234
-0.234
-0.234
-0.613
-0.613
-0.613
-0.613
-0.706
-0.706
-0.706
-0.706
-0.691
-0.691
-0.691
-0.691
-0.783
-0.783
-0.783
-0.783
-0.737
-0.737
-0.737
-0.737
-0.714
-0.714
-0.714
-0.714
-0.830
-0.830
-0.830
-0.830
-0.737
-0.737
-0.737
-0.737
-0.722
-0.722
-0.722
-0.722
-0.652
-0.652
-0.652
-0.652
-0.497
-0.497
-0.497
-0.497
-0.590
-0.590
-0.590
-0.590
-0.613
-0.613
-0.613
-0.613
-0.575
-0.575
-0.575
-0.575
-0.505
-0.505
-0.505
-0.505
-0.466
-0.466
-0.466
-0.466
-0.420
-0.420
-0.420
-0.420
-0.559
-0.559
-0.559
-0.559
-0.505
-0.505
-0.505
-0.505
-0.451
-0.451
-0.451
-0.451
-0.482
-0.482
-0.482
-0.482
-0.459
-0.459
-0.459
-0.459
-0.621
-0.621
-0.621
-0.621
-0.528
-0.528
-0.528
-0.528
-0.683
-0.683
-0.683
-0.683
-0.343
-0.343
-0.343
-0.343
-0.490
-0.490
-0.490
-0.490
-0.397
-0.397
-0.397
-0.397
-0.644
-0.644
-0.644
-0.644
-0.358
-0.358
-0.358
-0.358
-0.575
-0.575
-0.575
-0.575
-0.312
-0.312
-0.312
-0.312
-0.474
-0.474
-0.474
-0.474
-0.289
-0.289
-0.289
-0.289
-0.637
-0.637
-0.637
-0.637
-0.582
-0.582
-0.582
-0.582
-0.660
-0.660
-0.660
-0.660
-0.907
-0.907
-0.907
-0.907
-2.168
-2.168
-2.168
-2.168
-2.253
-2.253
-2.253
-2.253
-1.858
-1.858
-1.858
-1.858
0.075
0.075
0.075
0.075
3.230
3.230
3.230
3.230
9.006
9.006
9.006
9.006
10.808
10.808
10.808
10.808
11.357
11.357
11.357
11.357
10.127
10.127
10.127
10.127
4.683
4.683
4.683
4.683
0.098
0.098
0.098
0.098
-1.611
-1.611
-1.611
-1.611
-2.655
-2.655
-2.655
-2.655
-2.941
-2.941
-2.941
-2.941
-3.181
-3.181
-3.181
-3.181
-3.072
-3.072
-3.072
-3.072
-2.840
-2.840
-2.840
-2.840
-2.508
-2.508
-2.508
-2.508
-2.199
-2.199
-2.199
-2.199
-1.835
-1.835
-1.835
-1.835
-1.479
-1.479
-1.479
-1.479
-1.317
-1.317
-1.317
-1.317
-1.263
-1.263
-1.263
-1.263
-1.418
-1.418
-1.418
-1.418
-1.255
-1.255
-1.255
-1.255
-1.394
-1.394
-1.394
-1.394
-1.178
-1.178
-1.178
-1.178
-1.402
-1.402
-1.402
-1.402
-1.224
-1.224
-1.224
-1.224
-1.541
-1.541
-1.541
-1.541
-1.247
-1.247
-1.247
-1.247
-1.402
-1.402
-1.402
-1.402
-1.224
-1.224
-1.224
-1.224
-1.418
-1.418
-1.418
-1.418
-1.332
-1.332
-1.332
-1.332
-1.472
-1.472
-1.472
-1.472
-1.348
-1.348
-1.348
-1.348
-1.387
-1.387
-1.387
-1.387
-1.294
-1.294
-1.294
-1.294
-1.332
-1.332
-1.332
-1.332
-1.379
-1.379
-1.379
-1.379
-1.278
-1.278
-1.278
-1.278
-1.332
-1.332
-1.332
-1.332
-1.255
-1.255
-1.255
-1.255
-1.209
-1.209
-1.209
-1.209
-1.286
-1.286
-1.286
-1.286
-1.379
-1.379
-1.379
-1.379
-1.286
-1.286
-1.286
-1.286
-1.209
-1.209
-1.209
-1.209
-1.178
-1.178
-1.178
-1.178
-1.271
-1.271
-1.271
-1.271
-1.294
-1.294
-1.294
-1.294
-1.271
-1.271
-1.271
-1.271
-1.209
-1.209
-1.209
-1.209
-1.062
-1.062
-1.062
-1.062
-1.070
-1.070
-1.070
-1.070
-1.023
-1.023
-1.023
-1.023
-1.077
-1.077
-1.077
-1.077
-1.023
-1.023
-1.023
-1.023
-0.899
-0.899
-0.899
-0.899
-0.876
-0.876
-0.876
-0.876
-0.845
-0.845
-0.845
-0.845
-1.046
-1.046
-1.046
-1.046
-0.861
-0.861
-0.861
-0.861
-1.039
-1.039
-1.039
-1.039
-0.768
-0.768
-0.768
-0.768
-0.969
-0.969
-0.969
-0.969
-0.845
-0.845
-0.845
-0.845
-1.093
-1.093
-1.093
-1.093
-0.853
-0.853
-0.853
-0.853
-0.977
-0.977
-0.977
-0.977
-0.737
-0.737
-0.737
-0.737
-0.946
-0.946
-0.946
-0.946
-0.776
-0.776
-0.776
-0.776
-0.892
-0.892
-0.892
-0.892
-0.737
-0.737
-0.737
-0.737
-0.807
-0.807
-0.807
-0.807
-0.691
-0.691
-0.691
-0.691
-0.776
-0.776
-0.776
-0.776
-0.838
-0.838
-0.838
-0.838
-0.853
-0.853
-0.853
-0.853
-0.776
-0.776
-0.776
-0.776
-0.737
-0.737
-0.737
-0.737
-0.776
-0.776
-0.776
-0.776
-0.807
-0.807
-0.807
-0.807
-0.869
-0.869
-0.869
-0.869
-0.799
-0.799
-0.799
-0.799
-0.683
-0.683
-0.683
-0.683
-0.667
-0.667
-0.667
-0.667
-0.783
-0.783
-0.783
-0.783
-0.783
-0.783
-0.783
-0.783
-0.737
-0.737
-0.737
-0.737
-0.698
-0.698
-0.698
-0.698
-0.683
-0.683
-0.683
-0.683
-0.644
-0.644
-0.644
-0.644
-0.667
-0.667
-0.667
-0.667
-0.807
-0.807
-0.807
-0.807
-0.698
-0.698
-0.698
-0.698
-0.714
-0.714
-0.714
-0.714
-0.683
-0.683
-0.683
-0.683
-0.706
-0.706
-0.706
-0.706
-0.830
-0.830
-0.830
-0.830
-0.698
-0.698
-0.698
-0.698
-0.892
-0.892
-0.892
-0.892
-0.559
-0.559
-0.559
-0.559
-0.768
-0.768
-0.768
-0.768
-0.613
-0.613
-0.613
-0.613
-0.915
-0.915
-0.915
-0.915
-0.528
-0.528
-0.528
-0.528
-0.807
-0.807
-0.807
-0.807
-0.551
-0.551
-0.551
-0.551
-0.753
-0.753
-0.753
-0.753
-0.613
-0.613
-0.613
-0.613
-0.791
-0.791
-0.791
-0.791
-0.683
-0.683
-0.683
-0.683
-0.729
-0.729
-0.729
-0.729
-0.691
-0.691
-0.691
-0.691
-0.791
-0.791
-0.791
-0.791
-0.822
-0.822
-0.822
-0.822
-0.838
-0.838
-0.838
-0.838
-0.760
-0.760
-0.760
-0.760
-0.637
-0.637
-0.637
-0.637
-0.675
-0.675
-0.675
-0.675
-0.729
-0.729
-0.729
-0.729
-0.776
-0.776
-0.776
-0.776
-0.660
-0.660
-0.660
-0.660
-0.582
-0.582
-0.582
-0.582
-0.559
-0.559
-0.559
-0.559
-0.644
-0.644
-0.644
-0.644
-0.776
-0.776
-0.776
-0.776
-0.691
-0.691
-0.691
-0.691
-0.698
-0.698
-0.698
-0.698
-0.606
-0.606
-0.606
-0.606
-0.691
-0.691
-0.691
-0.691
-0.683
-0.683
-0.683
-0.683
-0.807
-0.807
-0.807
-0.807
-0.714
-0.714
-0.714
-0.714
-0.613
-0.613
-0.613
-0.613
-0.590
-0.590
-0.590
-0.590
-0.598
-0.598
-0.598
-0.598
-0.768
-0.768
-0.768
-0.768
-0.551
-0.551
-0.551
-0.551
-0.714
-0.714
-0.714
-0.714
-0.412
-0.412
-0.412
-0.412
-0.714
-0.714
-0.714
-0.714
-0.521
-0.521
-0.521
-0.521
-0.892
-0.892
-0.892
-0.892
-0.482
-0.482
-0.482
-0.482
-0.706
-0.706
-0.706
-0.706
-0.474
-0.474
-0.474
-0.474
-0.675
-0.675
-0.675
-0.675
-0.567
-0.567
-0.567
-0.567
-0.722
-0.722
-0.722
-0.722
-0.582
-0.582
-0.582
-0.582
-0.590
-0.590
-0.590
-0.590
-0.497
-0.497
-0.497
-0.497
-0.582
-0.582
-0.582
-0.582
-0.575
-0.575
-0.575
-0.575
-0.521
-0.521
-0.521
-0.521
-0.551
-0.551
-0.551
-0.551
-0.420
-0.420
-0.420
-0.420
-0.497
-0.497
-0.497
-0.497
-0.559
-0.559
-0.559
-0.559
-0.598
-0.598
-0.598
-0.598
-0.521
-0.521
-0.521
-0.521
-0.544
-0.544
-0.544
-0.544
-0.474
-0.474
-0.474
-0.474
-0.559
-0.559
-0.559
-0.559
-0.629
-0.629
-0.629
-0.629
-0.582
-0.582
-0.582
-0.582
-0.582
-0.582
-0.582
-0.582
-0.451
-0.451
-0.451
-0.451
-0.505
-0.505
-0.505
-0.505
-0.528
-0.528
-0.528
-0.528
-0.513
-0.513
-0.513
-0.513
-0.250
-0.250
-0.250
-0.250
-0.180
-0.180
-0.180
-0.180
-0.041
-0.041
-0.041
-0.041
-0.002
-0.002
-0.002
-0.002
-0.126
-0.126
-0.126
-0.126
0.152
0.152
0.152
0.152
-0.049
-0.049
-0.049
-0.049
0.423
0.423
0.423
0.423
0.407
0.407
0.407
0.407
0.384
0.384
0.384
0.384
-0.289
-0.289
-0.289
-0.289
0.152
0.152
0.152
0.152
0.090
0.090
0.090
0.090
0.585
0.585
0.585
0.585
0.539
0.539
0.539
0.539
0.755
0.755
0.755
0.755
0.392
0.392
0.392
0.392
-0.002
-0.002
-0.002
-0.002
-0.211
-0.211
-0.211
-0.211
-0.118
-0.118
-0.118
-0.118
-0.598
-0.598
-0.598
-0.598
-0.722
-0.722
-0.722
-0.722
-0.660
-0.660
-0.660
-0.660
-0.683
-0.683
-0.683
-0.683
-0.698
-0.698
-0.698
-0.698
-0.729
-0.729
-0.729
-0.729
-0.768
-0.768
-0.768
-0.768
-0.791
-0.791
-0.791
-0.791
-0.737
-0.737
-0.737
-0.737
-0.551
-0.551
-0.551
-0.551
-0.428
-0.428
-0.428
-0.428
-0.528
-0.528
-0.528
-0.528
-0.582
-0.582
-0.582
-0.582
-0.482
-0.482
-0.482
-0.482
-0.435
-0.435
-0.435
-0.435
-0.412
-0.412
-0.412
-0.412
-0.358
-0.358
-0.358
-0.358
-0.335
-0.335
-0.335
-0.335
-0.490
-0.490
-0.490
-0.490
-0.374
-0.374
-0.374
-0.374
-0.335
-0.335
-0.335
-0.335
-0.366
-0.366
-0.366
-0.366
-0.405
-0.405
-0.405
-0.405
-0.575
-0.575
-0.575
-0.575
-0.405
-0.405
-0.405
-0.405
-0.490
-0.490
-0.490
-0.490
-0.188
-0.188
-0.188
-0.188
-0.435
-0.435
-0.435
-0.435
-0.250
-0.250
-0.250
-0.250
-0.528
-0.528
-0.528
-0.528
-0.250
-0.250
-0.250
-0.250
-0.420
-0.420
-0.420
-0.420
-0.111
-0.111
-0.111
-0.111
-0.358
-0.358
-0.358
-0.358
-0.281
-0.281
-0.281
-0.281
-0.505
-0.505
-0.505
-0.505
-0.242
-0.242
-0.242
-0.242
-0.644
-0.644
-0.644
-0.644
-1.750
-1.750
-1.750
-1.750
-1.479
-1.479
-1.479
-1.479
-0.899
-0.899
-0.899
-0.899
1.413
1.413
1.413
1.413
5.132
5.132
5.132
5.132
11.140
11.140
11.140
11.140
11.148
11.148
11.148
11.148
12.973
12.973
12.973
12.973
9.741
9.741
9.741
9.741
3.609
3.609
3.609
3.609
-0.281
-0.281
-0.281
-0.281
-1.820
-1.820
-1.820
-1.820
-2.693
-2.693
-2.693
-2.693
-3.157
-3.157
-3.157
-3.157
-3.219
-3.219
-3.219
-3.219
-3.157
-3.157
-3.157
-3.157
-2.794
-2.794
-2.794
-2.794
-2.531
-2.531
-2.531
-2.531
-2.083
-2.083
-2.083
-2.083
-1.851
-1.851
-1.851
-1.851
-1.541
-1.541
-1.541
-1.541
-1.263
-1.263
-1.263
-1.263
-1.224
-1.224
-1.224
-1.224
-1.193
-1.193
-1.193
-1.193
-1.356
-1.356
-1.356
-1.356
-1.077
-1.077
-1.077
-1.077
-1.302
-1.302
-1.302
-1.302
-0.992
-0.992
-0.992
-0.992
-1.309
-1.309
-1.309
-1.309
-1.046
-1.046
-1.046
-1.046
-1.402
-1.402
-1.402
-1.402
-1.131
-1.131
-1.131
-1.131
-1.317
-1.317
-1.317
-1.317
-1.093
-1.093
-1.093
-1.093
-1.309
-1.309
-1.309
-1.309
-1.193
-1.193
-1.193
-1.193
-1.402
-1.402
-1.402
-1.402
-1.232
-1.232
-1.232
-1.232
-1.147
-1.147
-1.147
-1.147
-1.178
-1.178
-1.178
-1.178
-1.216
-1.216
-1.216
-1.216
-1.232
-1.232
-1.232
-1.232
-1.124
-1.124
-1.124
-1.124
-1.100
-1.100
-1.100
-1.100
-1.054
-1.054
-1.054
-1.054
-1.100
-1.100
-1.100
-1.100
-1.201
-1.201
-1.201
-1.201
-1.147
-1.147
-1.147
-1.147
-1.100
-1.100
-1.100
-1.100
-1.062
-1.062
-1.062
-1.062
-1.108
-1.108
-1.108
-1.108
-1.093
-1.093
-1.093
-1.093
-1.186
-1.186
-1.186
-1.186
-1.100
-1.100
-1.100
-1.100
-1.054
-1.054
-1.054
-1.054
-0.869
-0.869
-0.869
-0.869
-0.923
-0.923
-0.923
-0.923
-0.853
-0.853
-0.853
-0.853
-0.907
-0.907
-0.907
-0.907
-0.768
-0.768
-0.768
-0.768
-0.698
-0.698
-0.698
-0.698
-0.776
-0.776
-0.776
-0.776
-0.675
-0.675
-0.675
-0.675
-0.930
-0.930
-0.930
-0.930
-0.644
-0.644
-0.644
-0.644
-0.830
-0.830
-0.830
-0.830
-0.598
-0.598
-0.598
-0.598
-0.930
-0.930
-0.930
-0.930
-0.660
-0.660
-0.660
-0.660
-0.992
-0.992
-0.992
-0.992
-0.644
-0.644
-0.644
-0.644
-0.783
-0.783
-0.783
-0.783
-0.497
-0.497
-0.497
-0.497
-0.838
-0.838
-0.838
-0.838
-0.706
-0.706
-0.706
-0.706
-0.737
-0.737
-0.737
-0.737
-0.590
-0.590
-0.590
-0.590
-0.613
-0.613
-0.613
-0.613
-0.544
-0.544
-0.544
-0.544
-0.652
-0.652
-0.652
-0.652
-0.691
-0.691
-0.691
-0.691
-0.613
-0.613
-0.613
-0.613
-0.598
-0.598
-0.598
-0.598
-0.629
-0.629
-0.629
-0.629
-0.706
-0.706
-0.706
-0.706
-0.714
-0.714
-0.714
-0.714
-0.753
-0.753
-0.753
-0.753
-0.737
-0.737
-0.737
-0.737
-0.598
-0.598
-0.598
-0.598
-0.590
-0.590
-0.590
-0.590
-0.606
-0.606
-0.606
-0.606
-0.706
-0.706
-0.706
-0.706
-0.544
-0.544
-0.544
-0.544
-0.621
-0.621
-0.621
-0.621
-0.544
-0.544
-0.544
-0.544
-0.590
-0.590
-0.590
-0.590
-0.582
-0.582
-0.582
-0.582
-0.644
-0.644
-0.644
-0.644
-0.575
-0.575
-0.575
-0.575
-0.505
-0.505
-0.505
-0.505
-0.644
-0.644
-0.644
-0.644
-0.582
-0.582
-0.582
-0.582
-0.729
-0.729
-0.729
-0.729
-0.505
-0.505
-0.505
-0.505
-0.675
-0.675
-0.675
-0.675
-0.412
-0.412
-0.412
-0.412
-0.714
-0.714
-0.714
-0.714
-0.513
-0.513
-0.513
-0.513
-0.753
-0.753
-0.753
-0.753
-0.451
-0.451
-0.451
-0.451
-0.621
-0.621
-0.621
-0.621
-0.459
-0.459
-0.459
-0.459
-0.660
-0.660
-0.660
-0.660
-0.637
-0.637
-0.637
-0.637
-0.691
-0.691
-0.691
-0.691
-0.590
-0.590
-0.590
-0.590
-0.582
-0.582
-0.582
-0.582
-0.644
-0.644
-0.644
-0.644
-0.691
-0.691
-0.691
-0.691
-0.698
-0.698
-0.698
-0.698
-0.644
-0.644
-0.644
-0.644
-0.598
-0.598
-0.598
-0.598
-0.621
-0.621
-0.621
-0.621
-0.629
-0.629
-0.629
-0.629
-0.667
-0.667
-0.667
-0.667
-0.637
-0.637
-0.637
-0.637
-0.551
-0.551
-0.551
-0.551
-0.435
-0.435
-0.435
-0.435
-0.513
-0.513
-0.513
-0.513
-0.598
-0.598
-0.598
-0.598
-0.706
-0.706
-0.706
-0.706
-0.582
-0.582
-0.582
-0.582
-0.582
-0.582
-0.582
-0.582
-0.551
-0.551
-0.551
-0.551
-0.660
-0.660
-0.660
-0.660
-0.675
-0.675
-0.675
-0.675
-0.691
-0.691
-0.691
-0.691
-0.582
-0.582
-0.582
-0.582
-0.521
-0.521
-0.521
-0.521
-0.575
-0.575
-0.575
-0.575
-0.559
-0.559
-0.559
-0.559
-0.683
-0.683
-0.683
-0.683
-0.412
-0.412
-0.412
-0.412
-0.621
-0.621
-0.621
-0.621
-0.335
-0.335
-0.335
-0.335
-0.590
-0.590
-0.590
-0.590
-0.443
-0.443
-0.443
-0.443
-0.698
-0.698
-0.698
-0.698
-0.405
-0.405
-0.405
-0.405
-0.544
-0.544
-0.544
-0.544
-0.389
-0.389
-0.389
-0.389
-0.613
-0.613
-0.613
-0.613
-0.598
-0.598
-0.598
-0.598
-0.606
-0.606
-0.606
-0.606
-0.474
-0.474
-0.474
-0.474
-0.405
-0.405
-0.405
-0.405
-0.420
-0.420
-0.420
-0.420
-0.459
-0.459
-0.459
-0.459
-0.428
-0.428
-0.428
-0.428
-0.389
-0.389
-0.389
-0.389
-0.350
-0.350
-0.350
-0.350
-0.343
-0.343
-0.343
-0.343
-0.366
-0.366
-0.366
-0.366
-0.521
-0.521
-0.521
-0.521
-0.435
-0.435
-0.435
-0.435
-0.451
-0.451
-0.451
-0.451
-0.335
-0.335
-0.335
-0.335
-0.435
-0.435
-0.435
-0.435
-0.435
-0.435
-0.435
-0.435
-0.536
-0.536
-0.536
-0.536
-0.466
-0.466
-0.466
-0.466
-0.397
-0.397
-0.397
-0.397
-0.397
-0.397
-0.397
-0.397
-0.397
-0.397
-0.397
-0.397
-0.250
-0.250
-0.250
-0.250
-0.126
-0.126
-0.126
-0.126
0.036
0.036
0.036
0.036
0.121
0.121
0.121
0.121
0.005
0.005
0.005
0.005
0.175
0.175
0.175
0.175
-0.033
-0.033
-0.033
-0.033
0.461
0.461
0.461
0.461
0.523
0.523
0.523
0.523
0.523
0.523
0.523
0.523
-0.149
-0.149
-0.149
-0.149
0.206
0.206
0.206
0.206
0.067
0.067
0.067
0.067
0.531
0.531
0.531
0.531
0.639
0.639
0.639
0.639
0.887
0.887
0.887
0.887
0.415
0.415
0.415
0.415
-0.064
-0.064
-0.064
-0.064
-0.180
-0.180
-0.180
-0.180
-0.111
-0.111
-0.111
-0.111
-0.513
-0.513
-0.513
-0.513
-0.544
-0.544
-0.544
-0.544
-0.691
-0.691
-0.691
-0.691
-0.783
-0.783
-0.783
-0.783
-0.722
-0.722
-0.722
-0.722
-0.606
-0.606
-0.606
-0.606
-0.698
-0.698
-0.698
-0.698
-0.675
-0.675
-0.675
-0.675
-0.830
-0.830
-0.830
-0.830
-0.621
-0.621
-0.621
-0.621
-0.482
-0.482
-0.482
-0.482
-0.435
-0.435
-0.435
-0.435
-0.521
-0.521
-0.521
-0.521
-0.490
-0.490
-0.490
-0.490
-0.559
-0.559
-0.559
-0.559
-0.435
-0.435
-0.435
-0.435
-0.397
-0.397
-0.397
-0.397
-0.343
-0.343
-0.343
-0.343
-0.420
-0.420
-0.420
-0.420
-0.451
-0.451
-0.451
-0.451
-0.451
-0.451
-0.451
-0.451
-0.397
-0.397
-0.397
-0.397
-0.320
-0.320
-0.320
-0.320
-0.435
-0.435
-0.435
-0.435
-0.343
-0.343
-0.343
-0.343
-0.590
-0.590
-0.590
-0.590
-0.343
-0.343
-0.343
-0.343
-0.405
-0.405
-0.405
-0.405
-0.126
-0.126
-0.126
-0.126
-0.505
-0.505
-0.505
-0.505
-0.327
-0.327
-0.327
-0.327
-0.490
-0.490
-0.490
-0.490
-0.157
-0.157
-0.157
-0.157
-0.250
-0.250
-0.250
-0.250
-0.180
-0.180
-0.180
-0.180
-0.327
-0.327
-0.327
-0.327
-0.196
-0.196
-0.196
-0.196
-0.544
-0.544
-0.544
-0.544
-1.510
-1.510
-1.510
-1.510
-1.255
-1.255
-1.255
-1.255
-0.714
-0.714
-0.714
-0.714
1.405
1.405
1.405
1.405
4.691
4.691
4.691
4.691
10.638
10.638
10.638
10.638
11.519
11.519
11.519
11.519
12.532
12.532
12.532
12.532
10.019
10.019
10.019
10.019
4.018
4.018
4.018
4.018
-0.188
-0.188
-0.188
-0.188
-1.735
-1.735
-1.735
-1.735
-2.485
-2.485
-2.485
-2.485
-2.871
-2.871
-2.871
-2.871
-3.134
-3.134
-3.134
-3.134
-3.126
-3.126
-3.126
-3.126
-2.778
-2.778
-2.778
-2.778
-2.345
-2.345
-2.345
-2.345
-1.974
-1.974
-1.974
-1.974
-1.719
-1.719
-1.719
-1.719
-1.503
-1.503
-1.503
-1.503
-1.332
-1.332
-1.332
-1.332
-1.216
-1.216
-1.216
-1.216
-1.062
-1.062
-1.062
-1.062
-1.178
-1.178
-1.178
-1.178
-1.093
-1.093
-1.093
-1.093
-1.271
-1.271
-1.271
-1.271
-0.985
-0.985
-0.985
-0.985
-1.263
-1.263
-1.263
-1.263
-0.876
-0.876
-0.876
-0.876
-1.240
-1.240
-1.240
-1.240
-1.155
-1.155
-1.155
-1.155
-1.255
-1.255
-1.255
-1.255
-1.108
-1.108
-1.108
-1.108
-1.240
-1.240
-1.240
-1.240
-1.108
-1.108
-1.108
-1.108
-1.371
-1.371
-1.371
-1.371
-1.302
-1.302
-1.302
-1.302
-1.302
-1.302
-1.302
-1.302
-1.015
-1.015
-1.015
-1.015
-1.070
-1.070
-1.070
-1.070
-1.178
-1.178
-1.178
-1.178
-1.240
-1.240
-1.240
-1.240
-1.201
-1.201
-1.201
-1.201
-1.046
-1.046
-1.046
-1.046
-1.108
-1.108
-1.108
-1.108
-1.100
-1.100
-1.100
-1.100
-1.224
-1.224
-1.224
-1.224
-1.193
-1.193
-1.193
-1.193
-1.015
-1.015
-1.015
-1.015
-1.062
-1.062
-1.062
-1.062
-0.930
-0.930
-0.930
-0.930
-1.100
-1.100
-1.100
-1.100
-1.046
-1.046
-1.046
-1.046
-1.147
-1.147
-1.147
-1.147
-0.923
-0.923
-0.923
-0.923
-0.853
-0.853
-0.853
-0.853
-0.930
-0.930
-0.930
-0.930
-0.915
-0.915
-0.915
-0.915
-0.869
-0.869
-0.869
-0.869
-0.869
-0.869
-0.869
-0.869
-0.706
-0.706
-0.706
-0.706
-0.706
-0.706
-0.706
-0.706
-0.814
-0.814
-0.814
-0.814
-0.814
-0.814
-0.814
-0.814
-0.930
-0.930
-0.930
-0.930
-0.582
-0.582
-0.582
-0.582
-0.830
-0.830
-0.830
-0.830
-0.567
-0.567
-0.567
-0.567
-0.853
-0.853
-0.853
-0.853
-0.853
-0.853
-0.853
-0.853
-1.023
-1.023
-1.023
-1.023
-0.683
-0.683
-0.683
-0.683
-0.791
-0.791
-0.791
-0.791
-0.698
-0.698
-0.698
-0.698
-0.814
-0.814
-0.814
-0.814
-0.737
-0.737
-0.737
-0.737
-0.814
-0.814
-0.814
-0.814
-0.644
-0.644
-0.644
-0.644
-0.683
-0.683
-0.683
-0.683
-0.667
-0.667
-0.667
-0.667
-0.938
-0.938
-0.938
-0.938
-0.706
-0.706
-0.706
-0.706
-0.706
-0.706
-0.706
-0.706
-0.652
-0.652
-0.652
-0.652
-0.667
-0.667
-0.667
-0.667
-0.706
-0.706
-0.706
-0.706
-0.776
-0.776
-0.776
-0.776
-0.590
-0.590
-0.590
-0.590
-0.737
-0.737
-0.737
-0.737
-0.551
-0.551
-0.551
-0.551
-0.621
-0.621
-0.621
-0.621
-0.644
-0.644
-0.644
-0.644
-0.621
-0.621
-0.621
-0.621
-0.582
-0.582
-0.582
-0.582
-0.691
-0.691
-0.691
-0.691
-0.691
-0.691
-0.691
-0.691
-0.644
-0.644
-0.644
-0.644
-0.745
-0.745
-0.745
-0.745
-0.621
-0.621
-0.621
-0.621
-0.629
-0.629
-0.629
-0.629
-0.513
-0.513
-0.513
-0.513
-0.652
-0.652
-0.652
-0.652
-0.791
-0.791
-0.791
-0.791
-0.992
-0.992
-0.992
-0.992
-0.667
-0.667
-0.667
-0.667
-0.768
-0.768
-0.768
-0.768
-0.521
-0.521
-0.521
-0.521
-0.861
-0.861
-0.861
-0.861
-0.776
-0.776
-0.776
-0.776
-0.807
-0.807
-0.807
-0.807
-0.675
-0.675
-0.675
-0.675
-0.714
-0.714
-0.714
-0.714
-0.544
-0.544
-0.544
-0.544
-0.799
-0.799
-0.799
-0.799
-0.791
-0.791
-0.791
-0.791
-0.745
-0.745
-0.745
-0.745
-0.598
-0.598
-0.598
-0.598
-0.691
-0.691
-0.691
-0.691
-0.799
-0.799
-0.799
-0.799
-0.930
-0.930
-0.930
-0.930
-0.753
-0.753
-0.753
-0.753
-0.753
-0.753
-0.753
-0.753
-0.753
-0.753
-0.753
-0.753
-0.714
-0.714
-0.714
-0.714
-0.799
-0.799
-0.799
-0.799
-0.753
-0.753
-0.753
-0.753
-0.637
-0.637
-0.637
-0.637
-0.675
-0.675
-0.675
-0.675
-0.505
-0.505
-0.505
-0.505
-0.683
-0.683
-0.683
-0.683
-0.876
-0.876
-0.876
-0.876
-0.698
-0.698
-0.698
-0.698
-0.807
-0.807
-0.807
-0.807
-0.706
-0.706
-0.706
-0.706
-0.559
-0.559
-0.559
-0.559
-0.598
-0.598
-0.598
-0.598
-0.505
-0.505
-0.505
-0.505
-0.528
-0.528
-0.528
-0.528
-0.753
-0.753
-0.753
-0.753
-0.582
-0.582
-0.582
-0.582
-0.753
-0.753
-0.753
-0.753
-0.513
-0.513
-0.513
-0.513
-0.575
-0.575
-0.575
-0.575
-0.420
-0.420
-0.420
-0.420
-0.606
-0.606
-0.606
-0.606
-0.412
-0.412
-0.412
-0.412
-0.714
-0.714
-0.714
-0.714
-0.621
-0.621
-0.621
-0.621
-0.644
-0.644
-0.644
-0.644
-0.528
-0.528
-0.528
-0.528
-0.691
-0.691
-0.691
-0.691
-0.513
-0.513
-0.513
-0.513
-0.582
-0.582
-0.582
-0.582
-0.637
-0.637
-0.637
-0.637
-0.683
-0.683
-0.683
-0.683
-0.335
-0.335
-0.335
-0.335
-0.497
-0.497
-0.497
-0.497
-0.474
-0.474
-0.474
-0.474
-0.497
-0.497
-0.497
-0.497
-0.551
-0.551
-0.551
-0.551
-0.443
-0.443
-0.443
-0.443
-0.265
-0.265
-0.265
-0.265
-0.389
-0.389
-0.389
-0.389
-0.490
-0.490
-0.490
-0.490
-0.443
-0.443
-0.443
-0.443
-0.350
-0.350
-0.350
-0.350
-0.435
-0.435
-0.435
-0.435
-0.528
-0.528
-0.528
-0.528
-0.544
-0.544
-0.544
-0.544
-0.559
-0.559
-0.559
-0.559
-0.567
-0.567
-0.567
-0.567
-0.435
-0.435
-0.435
-0.435
-0.366
-0.366
-0.366
-0.366
-0.335
-0.335
-0.335
-0.335
-0.142
-0.142
-0.142
-0.142
-0.219
-0.219
-0.219
-0.219
-0.018
-0.018
-0.018
-0.018
0.067
0.067
0.067
0.067
0.230
0.230
0.230
0.230
0.028
0.028
0.028
0.028
0.206
0.206
0.206
0.206
0.237
0.237
0.237
0.237
0.647
0.647
0.647
0.647
-0.057
-0.057
-0.057
-0.057
0.299
0.299
0.299
0.299
0.036
0.036
0.036
0.036
0.461
0.461
0.461
0.461
0.554
0.554
0.554
0.554
0.779
0.779
0.779
0.779
0.454
0.454
0.454
0.454
0.299
0.299
0.299
0.299
-0.304
-0.304
-0.304
-0.304
-0.234
-0.234
-0.234
-0.234
-0.513
-0.513
-0.513
-0.513
-0.505
-0.505
-0.505
-0.505
-0.776
-0.776
-0.776
-0.776
-0.884
-0.884
-0.884
-0.884
-0.814
-0.814
-0.814
-0.814
-0.698
-0.698
-0.698
-0.698
-0.660
-0.660
-0.660
-0.660
-0.675
-0.675
-0.675
-0.675
-0.807
-0.807
-0.807
-0.807
-0.791
-0.791
-0.791
-0.791
-0.521
-0.521
-0.521
-0.521
-0.405
-0.405
-0.405
-0.405
-0.644
-0.644
-0.644
-0.644
-0.505
-0.505
-0.505
-0.505
-0.644
-0.644
-0.644
-0.644
-0.559
-0.559
-0.559
-0.559
-0.497
-0.497
-0.497
-0.497
-0.428
-0.428
-0.428
-0.428
-0.234
-0.234
-0.234
-0.234
-0.397
-0.397
-0.397
-0.397
-0.466
-0.466
-0.466
-0.466
-0.490
-0.490
-0.490
-0.490
-0.366
-0.366
-0.366
-0.366
-0.358
-0.358
-0.358
-0.358
-0.281
-0.281
-0.281
-0.281
-0.451
-0.451
-0.451
-0.451
-0.435
-0.435
-0.435
-0.435
-0.482
-0.482
-0.482
-0.482
-0.490
-0.490
-0.490
-0.490
-0.389
-0.389
-0.389
-0.389
-0.451
-0.451
-0.451
-0.451
-0.621
-0.621
-0.621
-0.621
-0.157
-0.157
-0.157
-0.157
-0.188
-0.188
-0.188
-0.188
-0.265
-0.265
-0.265
-0.265
-0.320
-0.320
-0.320
-0.320
-0.374
-0.374
-0.374
-0.374
-0.899
-0.899
-0.899
-0.899
-1.704
-1.704
-1.704
-1.704
-2.083
-2.083
-2.083
-2.083
-1.626
-1.626
-1.626
-1.626
-0.343
-0.343
-0.343
-0.343
2.611
2.611
2.611
2.611
7.923
7.923
7.923
7.923
11.047
11.047
11.047
11.047
8.983
8.983
8.983
8.983
9.973
9.973
9.973
9.973
5.256
5.256
5.256
5.256
0.353
0.353
0.353
0.353
-1.131
-1.131
-1.131
-1.131
-2.121
-2.121
-2.121
-2.121
-2.570
-2.570
-2.570
-2.570
-2.562
-2.562
-2.562
-2.562
-2.430
-2.430
-2.430
-2.430
-2.438
-2.438
-2.438
-2.438
-2.028
-2.028
-2.028
-2.028
-1.619
-1.619
-1.619
-1.619
-1.402
-1.402
-1.402
-1.402
-1.186
-1.186
-1.186
-1.186
-0.977
-0.977
-0.977
-0.977
-1.186
-1.186
-1.186
-1.186
-0.869
-0.869
-0.869
-0.869
-1.131
-1.131
-1.131
-1.131
-1.062
-1.062
-1.062
-1.062
-1.046
-1.046
-1.046
-1.046
-0.969
-0.969
-0.969
-0.969
-1.294
-1.294
-1.294
-1.294
-1.108
-1.108
-1.108
-1.108
-1.178
-1.178
-1.178
-1.178
-0.992
-0.992
-0.992
-0.992
-1.271
-1.271
-1.271
-1.271
-1.464
-1.464
-1.464
-1.464
-1.356
-1.356
-1.356
-1.356
-1.023
-1.023
-1.023
-1.023
-1.332
-1.332
-1.332
-1.332
-1.178
-1.178
-1.178
-1.178
-1.448
-1.448
-1.448
-1.448
-1.433
-1.433
-1.433
-1.433
-1.255
-1.255
-1.255
-1.255
-1.046
-1.046
-1.046
-1.046
-1.302
-1.302
-1.302
-1.302
-0.969
-0.969
-0.969
-0.969
-1.456
-1.456
-1.456
-1.456
-1.054
-1.054
-1.054
-1.054
-1.216
-1.216
-1.216
-1.216
-1.054
-1.054
-1.054
-1.054
-0.985
-0.985
-0.985
-0.985
-0.985
-0.985
-0.985
-0.985
-1.216
-1.216
-1.216
-1.216
-1.162
-1.162
-1.162
-1.162
-0.946
-0.946
-0.946
-0.946
-1.046
-1.046
-1.046
-1.046
-1.193
-1.193
-1.193
-1.193
-1.155
-1.155
-1.155
-1.155
-1.062
-1.062
-1.062
-1.062
-0.977
-0.977
-0.977
-0.977
-1.093
-1.093
-1.093
-1.093
-1.124
-1.124
-1.124
-1.124
-1.046
-1.046
-1.046
-1.046
-0.745
-0.745
-0.745
-0.745
-0.830
-0.830
-0.830
-0.830
-0.814
-0.814
-0.814
-0.814
-0.675
-0.675
-0.675
-0.675
-0.822
-0.822
-0.822
-0.822
-0.845
-0.845
-0.845
-0.845
-0.853
-0.853
-0.853
-0.853
-0.753
-0.753
-0.753
-0.753
-0.861
-0.861
-0.861
-0.861
-0.807
-0.807
-0.807
-0.807
-1.100
-1.100
-1.100
-1.100
-0.869
-0.869
-0.869
-0.869
-0.915
-0.915
-0.915
-0.915
-0.482
-0.482
-0.482
-0.482
-0.729
-0.729
-0.729
-0.729
-0.691
-0.691
-0.691
-0.691
-0.892
-0.892
-0.892
-0.892
-0.644
-0.644
-0.644
-0.644
-0.760
-0.760
-0.760
-0.760
-0.675
-0.675
-0.675
-0.675
-0.629
-0.629
-0.629
-0.629
-0.613
-0.613
-0.613
-0.613
-0.722
-0.722
-0.722
-0.722
-0.691
-0.691
-0.691
-0.691
-0.783
-0.783
-0.783
-0.783
-0.691
-0.691
-0.691
-0.691
-0.729
-0.729
-0.729
-0.729
-0.876
-0.876
-0.876
-0.876
-0.838
-0.838
-0.838
-0.838
-0.660
-0.660
-0.660
-0.660
-0.435
-0.435
-0.435
-0.435
-0.644
-0.644
-0.644
-0.644
-0.683
-0.683
-0.683
-0.683
-0.652
-0.652
-0.652
-0.652
-0.474
-0.474
-0.474
-0.474
-0.714
-0.714
-0.714
-0.714
-0.621
-0.621
-0.621
-0.621
-0.621
-0.621
-0.621
-0.621
-0.822
-0.822
-0.822
-0.822
-0.807
-0.807
-0.807
-0.807
-0.528
-0.528
-0.528
-0.528
-0.582
-0.582
-0.582
-0.582
-0.660
-0.660
-0.660
-0.660
-0.745
-0.745
-0.745
-0.745
-0.691
-0.691
-0.691
-0.691
-0.830
-0.830
-0.830
-0.830
-0.582
-0.582
-0.582
-0.582
-0.675
-0.675
-0.675
-0.675
-0.629
-0.629
-0.629
-0.629
-0.807
-0.807
-0.807
-0.807
-0.737
-0.737
-0.737
-0.737
-0.783
-0.783
-0.783
-0.783
-0.567
-0.567
-0.567
-0.567
-0.737
-0.737
-0.737
-0.737
-0.582
-0.582
-0.582
-0.582
-0.923
-0.923
-0.923
-0.923
-0.714
-0.714
-0.714
-0.714
-0.830
-0.830
-0.830
-0.830
-0.691
-0.691
-0.691
-0.691
-0.869
-0.869
-0.869
-0.869
-0.822
-0.822
-0.822
-0.822
-0.938
-0.938
-0.938
-0.938
-0.807
-0.807
-0.807
-0.807
-0.776
-0.776
-0.776
-0.776
-0.660
-0.660
-0.660
-0.660
-0.814
-0.814
-0.814
-0.814
-0.791
-0.791
-0.791
-0.791
-0.776
-0.776
-0.776
-0.776
-0.706
-0.706
-0.706
-0.706
-0.660
-0.660
-0.660
-0.660
-0.683
-0.683
-0.683
-0.683
-0.737
-0.737
-0.737
-0.737
-0.791
-0.791
-0.791
-0.791
-0.675
-0.675
-0.675
-0.675
-0.706
-0.706
-0.706
-0.706
-0.621
-0.621
-0.621
-0.621
-0.768
-0.768
-0.768
-0.768
-0.768
-0.768
-0.768
-0.768
-0.845
-0.845
-0.845
-0.845
-0.683
-0.683
-0.683
-0.683
-0.590
-0.590
-0.590
-0.590
-0.598
-0.598
-0.598
-0.598
-0.667
-0.667
-0.667
-0.667
-0.559
-0.559
-0.559
-0.559
-0.637
-0.637
-0.637
-0.637
-0.513
-0.513
-0.513
-0.513
-0.505
-0.505
-0.505
-0.505
-0.505
-0.505
-0.505
-0.505
-0.706
-0.706
-0.706
-0.706
-0.536
-0.536
-0.536
-0.536
-0.652
-0.652
-0.652
-0.652
-0.435
-0.435
-0.435
-0.435
-0.675
-0.675
-0.675
-0.675
-0.513
-0.513
-0.513
-0.513
-0.791
-0.791
-0.791
-0.791
-0.521
-0.521
-0.521
-0.521
-0.629
-0.629
-0.629
-0.629
-0.350
-0.350
-0.350
-0.350
-0.544
-0.544
-0.544
-0.544
-0.521
-0.521
-0.521
-0.521
-0.621
-0.621
-0.621
-0.621
-0.412
-0.412
-0.412
-0.412
-0.451
-0.451
-0.451
-0.451
-0.397
-0.397
-0.397
-0.397
-0.536
-0.536
-0.536
-0.536
-0.606
-0.606
-0.606
-0.606
-0.536
-0.536
-0.536
-0.536
-0.474
-0.474
-0.474
-0.474
-0.435
-0.435
-0.435
-0.435
-0.551
-0.551
-0.551
-0.551
-0.567
-0.567
-0.567
-0.567
-0.629
-0.629
-0.629
-0.629
-0.466
-0.466
-0.466
-0.466
-0.273
-0.273
-0.273
-0.273
-0.126
-0.126
-0.126
-0.126
-0.088
-0.088
-0.088
-0.088
-0.118
-0.118
-0.118
-0.118
-0.088
-0.088
-0.088
-0.088
0.075
0.075
0.075
0.075
0.191
0.191
0.191
0.191
0.253
0.253
0.253
0.253
0.461
0.461
0.461
0.461
0.036
0.036
0.036
0.036
-0.180
-0.180
-0.180
-0.180
0.083
0.083
0.083
0.083
0.291
0.291
0.291
0.291
0.461
0.461
0.461
0.461
0.446
0.446
0.446
0.446
0.461
0.461
0.461
0.461
0.214
0.214
0.214
0.214
-0.049
-0.049
-0.049
-0.049
-0.273
-0.273
-0.273
-0.273
-0.273
-0.273
-0.273
-0.273
-0.760
-0.760
-0.760
-0.760
-0.521
-0.521
-0.521
-0.521
-0.729
-0.729
-0.729
-0.729
-0.528
-0.528
-0.528
-0.528
-0.729
-0.729
-0.729
-0.729
-0.667
-0.667
-0.667
-0.667
-0.807
-0.807
-0.807
-0.807
-0.559
-0.559
-0.559
-0.559
-0.706
-0.706
-0.706
-0.706
-0.536
-0.536
-0.536
-0.536
-0.505
-0.505
-0.505
-0.505
-0.613
-0.613
-0.613
-0.613
-0.606
-0.606
-0.606
-0.606
-0.544
-0.544
-0.544
-0.544
-0.366
-0.366
-0.366
-0.366
-0.482
-0.482
-0.482
-0.482
-0.412
-0.412
-0.412
-0.412
-0.451
-0.451
-0.451
-0.451
-0.374
-0.374
-0.374
-0.374
-0.335
-0.335
-0.335
-0.335
-0.312
-0.312
-0.312
-0.312
-0.428
-0.428
-0.428
-0.428
-0.428
-0.428
-0.428
-0.428
-0.412
-0.412
-0.412
-0.412
-0.358
-0.358
-0.358
-0.358
-0.296
-0.296
-0.296
-0.296
-0.358
-0.358
-0.358
-0.358
-0.374
-0.374
-0.374
-0.374
-0.412
-0.412
-0.412
-0.412
-0.490
-0.490
-0.490
-0.490
-0.350
-0.350
-0.350
-0.350
-0.350
-0.350
-0.350
-0.350
-0.227
-0.227
-0.227
-0.227
-0.683
-0.683
-0.683
-0.683
-0.304
-0.304
-0.304
-0.304
-0.644
-0.644
-0.644
-0.644
-0.490
-0.490
-0.490
-0.490
-1.603
-1.603
-1.603
-1.603
-2.253
-2.253
-2.253
-2.253
-2.067
-2.067
-2.067
-2.067
-1.108
-1.108
-1.108
-1.108
1.219
1.219
1.219
1.219
5.689
5.689
5.689
5.689
10.947
10.947
10.947
10.947
9.578
9.578
9.578
9.578
12.091
12.091
12.091
12.091
7.854
7.854
7.854
7.854
1.691
1.691
1.691
1.691
-0.814
-0.814
-0.814
-0.814
-2.229
-2.229
-2.229
-2.229
-2.748
-2.748
-2.748
-2.748
-3.010
-3.010
-3.010
-3.010
-3.049
-3.049
-3.049
-3.049
-2.902
-2.902
-2.902
-2.902
-2.678
-2.678
-2.678
-2.678
-2.315
-2.315
-2.315
-2.315
-1.959
-1.959
-1.959
-1.959
-1.611
-1.611
-1.611
-1.611
-1.425
-1.425
-1.425
-1.425
-1.317
-1.317
-1.317
-1.317
-1.332
-1.332
-1.332
-1.332
-1.348
-1.348
-1.348
-1.348
-1.332
-1.332
-1.332
-1.332
-1.255
-1.255
-1.255
-1.255
-1.139
-1.139
-1.139
-1.139
-1.224
-1.224
-1.224
-1.224
-1.363
-1.363
-1.363
-1.363
-1.325
-1.325
-1.325
-1.325
-1.294
-1.294
-1.294
-1.294
-1.193
-1.193
-1.193
-1.193
-1.317
-1.317
-1.317
-1.317
-1.224
-1.224
-1.224
-1.224
-1.510
-1.510
-1.510
-1.510
-1.325
-1.325
-1.325
-1.325
-1.441
-1.441
-1.441
-1.441
-1.186
-1.186
-1.186
-1.186
-1.472
-1.472
-1.472
-1.472
-1.302
-1.302
-1.302
-1.302
-1.580
-1.580
-1.580
-1.580
-1.294
-1.294
-1.294
-1.294
-1.363
-1.363
-1.363
-1.363
-1.178
-1.178
-1.178
-1.178
-1.371
-1.371
-1.371
-1.371
-1.247
-1.247
-1.247
-1.247
-1.286
-1.286
-1.286
-1.286
-1.131
-1.131
-1.131
-1.131
-1.139
-1.139
-1.139
-1.139
-1.147
-1.147
-1.147
-1.147
-1.186
-1.186
-1.186
-1.186
-1.178
-1.178
-1.178
-1.178
-1.155
-1.155
-1.155
-1.155
-1.031
-1.031
-1.031
-1.031
-1.070
-1.070
-1.070
-1.070
-1.147
-1.147
-1.147
-1.147
-1.077
-1.077
-1.077
-1.077
-1.162
-1.162
-1.162
-1.162
-1.015
-1.015
-1.015
-1.015
-0.954
-0.954
-0.954
-0.954
-0.946
-0.946
-0.946
-0.946
-0.969
-0.969
-0.969
-0.969
-1.023
-1.023
-1.023
-1.023
-0.899
-0.899
-0.899
-0.899
-0.884
-0.884
-0.884
-0.884
-0.753
-0.753
-0.753
-0.753
-0.799
-0.799
-0.799
-0.799
-0.899
-0.899
-0.899
-0.899
-0.876
-0.876
-0.876
-0.876
-0.892
-0.892
-0.892
-0.892
-0.768
-0.768
-0.768
-0.768
-0.907
-0.907
-0.907
-0.907
-0.807
-0.807
-0.807
-0.807
-1.046
-1.046
-1.046
-1.046
-0.814
-0.814
-0.814
-0.814
-0.930
-0.930
-0.930
-0.930
-0.582
-0.582
-0.582
-0.582
-0.876
-0.876
-0.876
-0.876
-0.714
-0.714
-0.714
-0.714
-0.869
-0.869
-0.869
-0.869
-0.598
-0.598
-0.598
-0.598
-0.776
-0.776
-0.776
-0.776
-0.590
-0.590
-0.590
-0.590
-0.698
-0.698
-0.698
-0.698
-0.722
-0.722
-0.722
-0.722
-0.791
-0.791
-0.791
-0.791
-0.629
-0.629
-0.629
-0.629
-0.691
-0.691
-0.691
-0.691
-0.660
-0.660
-0.660
-0.660
-0.753
-0.753
-0.753
-0.753
-0.760
-0.760
-0.760
-0.760
-0.760
-0.760
-0.760
-0.760
-0.675
-0.675
-0.675
-0.675
-0.637
-0.637
-0.637
-0.637
-0.783
-0.783
-0.783
-0.783
-0.691
-0.691
-0.691
-0.691
-0.737
-0.737
-0.737
-0.737
-0.637
-0.637
-0.637
-0.637
-0.667
-0.667
-0.667
-0.667
-0.590
-0.590
-0.590
-0.590
-0.706
-0.706
-0.706
-0.706
-0.768
-0.768
-0.768
-0.768
-0.691
-0.691
-0.691
-0.691
-0.652
-0.652
-0.652
-0.652
-0.637
-0.637
-0.637
-0.637
-0.753
-0.753
-0.753
-0.753
-0.845
-0.845
-0.845
-0.845
-0.814
-0.814
-0.814
-0.814
-0.814
-0.814
-0.814
-0.814
-0.590
-0.590
-0.590
-0.590
-0.807
-0.807
-0.807
-0.807
-0.660
-0.660
-0.660
-0.660
-0.954
-0.954
-0.954
-0.954
-0.629
-0.629
-0.629
-0.629
-0.845
-0.845
-0.845
-0.845
-0.582
-0.582
-0.582
-0.582
-0.822
-0.822
-0.822
-0.822
-0.706
-0.706
-0.706
-0.706
-0.830
-0.830
-0.830
-0.830
-0.621
-0.621
-0.621
-0.621
-0.760
-0.760
-0.760
-0.760
-0.652
-0.652
-0.652
-0.652
-0.876
-0.876
-0.876
-0.876
-0.783
-0.783
-0.783
-0.783
-0.869
-0.869
-0.869
-0.869
-0.706
-0.706
-0.706
-0.706
-0.652
-0.652
-0.652
-0.652
-0.714
-0.714
-0.714
-0.714
-0.745
-0.745
-0.745
-0.745
-0.729
-0.729
-0.729
-0.729
-0.660
-0.660
-0.660
-0.660
-0.629
-0.629
-0.629
-0.629
-0.644
-0.644
-0.644
-0.644
-0.683
-0.683
-0.683
-0.683
-0.768
-0.768
-0.768
-0.768
-0.783
-0.783
-0.783
-0.783
-0.667
-0.667
-0.667
-0.667
-0.652
-0.652
-0.652
-0.652
-0.667
-0.667
-0.667
-0.667
-0.706
-0.706
-0.706
-0.706
-0.745
-0.745
-0.745
-0.745
-0.667
-0.667
-0.667
-0.667
-0.567
-0.567
-0.567
-0.567
-0.521
-0.521
-0.521
-0.521
-0.575
-0.575
-0.575
-0.575
-0.590
-0.590
-0.590
-0.590
-0.551
-0.551
-0.551
-0.551
-0.621
-0.621
-0.621
-0.621
-0.459
-0.459
-0.459
-0.459
-0.559
-0.559
-0.559
-0.559
-0.428
-0.428
-0.428
-0.428
-0.706
-0.706
-0.706
-0.706
-0.474
-0.474
-0.474
-0.474
-0.629
-0.629
-0.629
-0.629
-0.420
-0.420
-0.420
-0.420
-0.637
-0.637
-0.637
-0.637
-0.466
-0.466
-0.466
-0.466
-0.745
-0.745
-0.745
-0.745
-0.466
-0.466
-0.466
-0.466
-0.497
-0.497
-0.497
-0.497
-0.428
-0.428
-0.428
-0.428
-0.613
-0.613
-0.613
-0.613
-0.513
-0.513
-0.513
-0.513
-0.582
-0.582
-0.582
-0.582
-0.428
-0.428
-0.428
-0.428
-0.451
-0.451
-0.451
-0.451
-0.466
-0.466
-0.466
-0.466
-0.505
-0.505
-0.505
-0.505
-0.544
-0.544
-0.544
-0.544
-0.482
-0.482
-0.482
-0.482
-0.497
-0.497
-0.497
-0.497
-0.474
-0.474
-0.474
-0.474
-0.644
-0.644
-0.644
-0.644
-0.575
-0.575
-0.575
-0.575
-0.490
-0.490
-0.490
-0.490
-0.296
-0.296
-0.296
-0.296
-0.049
-0.049
-0.049
-0.049
-0.064
-0.064
-0.064
-0.064
-0.072
-0.072
-0.072
-0.072
-0.072
-0.072
-0.072
-0.072
0.052
0.052
0.052
0.052
0.276
0.276
0.276
0.276
0.647
0.647
0.647
0.647
0.268
0.268
0.268
0.268
-0.188
-0.188
-0.188
-0.188
0.067
0.067
0.067
0.067
0.152
0.152
0.152
0.152
0.531
0.531
0.531
0.531
0.454
0.454
0.454
0.454
0.670
0.670
0.670
0.670
0.214
0.214
0.214
0.214
-0.095
-0.095
-0.095
-0.095
-0.312
-0.312
-0.312
-0.312
-0.095
-0.095
-0.095
-0.095
-0.729
-0.729
-0.729
-0.729
-0.613
-0.613
-0.613
-0.613
-0.814
-0.814
-0.814
-0.814
-0.706
-0.706
-0.706
-0.706
-0.776
-0.776
-0.776
-0.776
-0.582
-0.582
-0.582
-0.582
-0.799
-0.799
-0.799
-0.799
-0.714
-0.714
-0.714
-0.714
-0.791
-0.791
-0.791
-0.791
-0.613
-0.613
-0.613
-0.613
-0.490
-0.490
-0.490
-0.490
-0.598
-0.598
-0.598
-0.598
-0.660
-0.660
-0.660
-0.660
-0.637
-0.637
-0.637
-0.637
-0.582
-0.582
-0.582
-0.582
-0.443
-0.443
-0.443
-0.443
-0.389
-0.389
-0.389
-0.389
-0.513
-0.513
-0.513
-0.513
-0.474
-0.474
-0.474
-0.474
-0.443
-0.443
-0.443
-0.443
-0.374
-0.374
-0.374
-0.374
-0.343
-0.343
-0.343
-0.343
-0.420
-0.420
-0.420
-0.420
-0.435
-0.435
-0.435
-0.435
-0.466
-0.466
-0.466
-0.466
-0.397
-0.397
-0.397
-0.397
-0.343
-0.343
-0.343
-0.343
-0.335
-0.335
-0.335
-0.335
-0.389
-0.389
-0.389
-0.389
-0.521
-0.521
-0.521
-0.521
-0.567
-0.567
-0.567
-0.567
-0.505
-0.505
-0.505
-0.505
-0.211
-0.211
-0.211
-0.211
-0.397
-0.397
-0.397
-0.397
-0.250
-0.250
-0.250
-0.250
-0.567
-0.567
-0.567
-0.567
-0.157
-0.157
-0.157
-0.157
-0.745
-0.745
-0.745
-0.745
-1.603
-1.603
-1.603
-1.603
-1.541
-1.541
-1.541
-1.541
-0.838
-0.838
-0.838
-0.838
1.235
1.235
1.235
1.235
4.970
4.970
4.970
4.970
10.738
10.738
10.738
10.738
11.187
11.187
11.187
11.187
12.710
12.710
12.710
12.710
9.764
9.764
9.764
9.764
3.624
3.624
3.624
3.624
-0.397
-0.397
-0.397
-0.397
-1.866
-1.866
-1.866
-1.866
-2.833
-2.833
-2.833
-2.833
-3.142
-3.142
-3.142
-3.142
-3.351
-3.351
-3.351
-3.351
-3.266
-3.266
-3.266
-3.266
-2.956
-2.956
-2.956
-2.956
-2.500
-2.500
-2.500
-2.500
-2.168
-2.168
-2.168
-2.168
-1.881
-1.881
-1.881
-1.881
-1.603
-1.603
-1.603
-1.603
-1.418
-1.418
-1.418
-1.418
-1.302
-1.302
-1.302
-1.302
-1.317
-1.317
-1.317
-1.317
-1.340
-1.340
-1.340
-1.340
-1.340
-1.340
-1.340
-1.340
-1.309
-1.309
-1.309
-1.309
-1.193
-1.193
-1.193
-1.193
-1.178
-1.178
-1.178
-1.178
-1.263
-1.263
-1.263
-1.263
-1.317
-1.317
-1.317
-1.317
-1.240
-1.240
-1.240
-1.240
-1.232
-1.232
-1.232
-1.232
-1.085
-1.085
-1.085
-1.085
-1.363
-1.363
-1.363
-1.363
-1.224
-1.224
-1.224
-1.224
-1.441
-1.441
-1.441
-1.441
-1.131
-1.131
-1.131
-1.131
-1.379
-1.379
-1.379
-1.379
-1.139
-1.139
-1.139
-1.139
-1.464
-1.464
-1.464
-1.464
-1.294
-1.294
-1.294
-1.294
-1.510
-1.510
-1.510
-1.510
-1.271
-1.271
-1.271
-1.271
-1.325
-1.325
-1.325
-1.325
-1.186
-1.186
-1.186
-1.186
-1.340
-1.340
-1.340
-1.340
-1.232
-1.232
-1.232
-1.232
-1.263
-1.263
-1.263
-1.263
-1.147
-1.147
-1.147
-1.147
-1.124
-1.124
-1.124
-1.124
-1.108
-1.108
-1.108
-1.108
-1.240
-1.240
-1.240
-1.240
-1.201
-1.201
-1.201
-1.201
-1.062
-1.062
-1.062
-1.062
-1.039
-1.039
-1.039
-1.039
-1.054
-1.054
-1.054
-1.054
-1.124
-1.124
-1.124
-1.124
-1.139
-1.139
-1.139
-1.139
-1.100
-1.100
-1.100
-1.100
-0.961
-0.961
-0.961
-0.961
-0.954
-0.954
-0.954
-0.954
-0.969
-0.969
-0.969
-0.969
-1.008
-1.008
-1.008
-1.008
-0.946
-0.946
-0.946
-0.946
-0.954
-0.954
-0.954
-0.954
-0.845
-0.845
-0.845
-0.845
-0.814
-0.814
-0.814
-0.814
-0.869
-0.869
-0.869
-0.869
-0.946
-0.946
-0.946
-0.946
-0.869
-0.869
-0.869
-0.869
-0.876
-0.876
-0.876
-0.876
-0.729
-0.729
-0.729
-0.729
-0.961
-0.961
-0.961
-0.961
-0.768
-0.768
-0.768
-0.768
-1.031
-1.031
-1.031
-1.031
-0.753
-0.753
-0.753
-0.753
-0.869
-0.869
-0.869
-0.869
-0.652
-0.652
-0.652
-0.652
-0.923
-0.923
-0.923
-0.923
-0.776
-0.776
-0.776
-0.776
-0.869
-0.869
-0.869
-0.869
-0.706
-0.706
-0.706
-0.706
-0.783
-0.783
-0.783
-0.783
-0.621
-0.621
-0.621
-0.621
-0.807
-0.807
-0.807
-0.807
-0.745
-0.745
-0.745
-0.745
-0.791
-0.791
-0.791
-0.791
-0.691
-0.691
-0.691
-0.691
-0.691
-0.691
-0.691
-0.691
-0.729
-0.729
-0.729
-0.729
-0.760
-0.760
-0.760
-0.760
-0.783
-0.783
-0.783
-0.783
-0.729
-0.729
-0.729
-0.729
-0.598
-0.598
-0.598
-0.598
-0.637
-0.637
-0.637
-0.637
-0.698
-0.698
-0.698
-0.698
-0.706
-0.706
-0.706
-0.706
-0.714
-0.714
-0.714
-0.714
-0.698
-0.698
-0.698
-0.698
-0.613
-0.613
-0.613
-0.613
-0.737
-0.737
-0.737
-0.737
-0.822
-0.822
-0.822
-0.822
-0.729
-0.729
-0.729
-0.729
-0.706
-0.706
-0.706
-0.706
-0.737
-0.737
-0.737
-0.737
-0.706
-0.706
-0.706
-0.706
-0.807
-0.807
-0.807
-0.807
-0.853
-0.853
-0.853
-0.853
-0.753
-0.753
-0.753
-0.753
-0.745
-0.745
-0.745
-0.745
-0.559
-0.559
-0.559
-0.559
-0.845
-0.845
-0.845
-0.845
-0.714
-0.714
-0.714
-0.714
-0.884
-0.884
-0.884
-0.884
-0.675
-0.675
-0.675
-0.675
-0.807
-0.807
-0.807
-0.807
-0.590
-0.590
-0.590
-0.590
-0.876
-0.876
-0.876
-0.876
-0.753
-0.753
-0.753
-0.753
-0.899
-0.899
-0.899
-0.899
-0.698
-0.698
-0.698
-0.698
-0.822
-0.822
-0.822
-0.822
-0.722
-0.722
-0.722
-0.722
-0.876
-0.876
-0.876
-0.876
-0.783
-0.783
-0.783
-0.783
-0.853
-0.853
-0.853
-0.853
-0.660
-0.660
-0.660
-0.660
-0.698
-0.698
-0.698
-0.698
-0.776
-0.776
-0.776
-0.776
-0.830
-0.830
-0.830
-0.830
-0.729
-0.729
-0.729
-0.729
-0.644
-0.644
-0.644
-0.644
-0.606
-0.606
-0.606
-0.606
-0.667
-0.667
-0.667
-0.667
-0.698
-0.698
-0.698
-0.698
-0.714
-0.714
-0.714
-0.714
-0.698
-0.698
-0.698
-0.698
-0.582
-0.582
-0.582
-0.582
-0.652
-0.652
-0.652
-0.652
-0.737
-0.737
-0.737
-0.737
-0.745
-0.745
-0.745
-0.745
-0.706
-0.706
-0.706
-0.706
-0.621
-0.621
-0.621
-0.621
-0.575
-0.575
-0.575
-0.575
-0.497
-0.497
-0.497
-0.497
-0.613
-0.613
-0.613
-0.613
-0.621
-0.621
-0.621
-0.621
-0.559
-0.559
-0.559
-0.559
-0.544
-0.544
-0.544
-0.544
-0.397
-0.397
-0.397
-0.397
-0.637
-0.637
-0.637
-0.637
-0.482
-0.482
-0.482
-0.482
-0.722
-0.722
-0.722
-0.722
-0.459
-0.459
-0.459
-0.459
-0.675
-0.675
-0.675
-0.675
-0.482
-0.482
-0.482
-0.482
-0.776
-0.776
-0.776
-0.776
-0.660
-0.660
-0.660
-0.660
-0.768
-0.768
-0.768
-0.768
-0.466
-0.466
-0.466
-0.466
-0.644
-0.644
-0.644
-0.644
-0.513
-0.513
-0.513
-0.513
-0.683
-0.683
-0.683
-0.683
-0.551
-0.551
-0.551
-0.551
-0.559
-0.559
-0.559
-0.559
-0.428
-0.428
-0.428
-0.428
-0.459
-0.459
-0.459
-0.459
-0.528
-0.528
-0.528
-0.528
-0.598
-0.598
-0.598
-0.598
-0.559
-0.559
-0.559
-0.559
-0.559
-0.559
-0.559
-0.559
-0.598
-0.598
-0.598
-0.598
-0.621
-0.621
-0.621
-0.621
-0.528
-0.528
-0.528
-0.528
-0.428
-0.428
-0.428
-0.428
-0.320
-0.320
-0.320
-0.320
-0.057
-0.057
-0.057
-0.057
-0.103
-0.103
-0.103
-0.103
-0.041
-0.041
-0.041
-0.041
-0.033
-0.033
-0.033
-0.033
0.160
0.160
0.160
0.160
0.423
0.423
0.423
0.423
0.500
0.500
0.500
0.500
0.067
0.067
0.067
0.067
0.036
0.036
0.036
0.036
0.005
0.005
0.005
0.005
0.315
0.315
0.315
0.315
0.485
0.485
0.485
0.485
0.809
0.809
0.809
0.809
0.361
0.361
0.361
0.361
0.129
0.129
0.129
0.129
-0.497
-0.497
-0.497
-0.497
-0.157
-0.157
-0.157
-0.157
-0.559
-0.559
-0.559
-0.559
-0.606
-0.606
-0.606
-0.606
-0.838
-0.838
-0.838
-0.838
-0.760
-0.760
-0.760
-0.760
-0.861
-0.861
-0.861
-0.861
-0.660
-0.660
-0.660
-0.660
-0.807
-0.807
-0.807
-0.807
-0.706
-0.706
-0.706
-0.706
-0.884
-0.884
-0.884
-0.884
-0.776
-0.776
-0.776
-0.776
-0.629
-0.629
-0.629
-0.629
-0.497
-0.497
-0.497
-0.497
-0.606
-0.606
-0.606
-0.606
-0.621
-0.621
-0.621
-0.621
-0.714
-0.714
-0.714
-0.714
-0.667
-0.667
-0.667
-0.667
-0.551
-0.551
-0.551
-0.551
-0.412
-0.412
-0.412
-0.412
-0.497
-0.497
-0.497
-0.497
-0.551
-0.551
-0.551
-0.551
-0.482
-0.482
-0.482
-0.482
-0.490
-0.490
-0.490
-0.490
-0.389
-0.389
-0.389
-0.389
-0.451
-0.451
-0.451
-0.451
-0.428
-0.428
-0.428
-0.428
-0.567
-0.567
-0.567
-0.567
-0.435
-0.435
-0.435
-0.435
-0.428
-0.428
-0.428
-0.428
-0.397
-0.397
-0.397
-0.397
-0.443
-0.443
-0.443
-0.443
-0.521
-0.521
-0.521
-0.521
-0.575
-0.575
-0.575
-0.575
-0.435
-0.435
-0.435
-0.435
-0.312
-0.312
-0.312
-0.312
-0.327
-0.327
-0.327
-0.327
-0.412
-0.412
-0.412
-0.412
-0.273
-0.273
-0.273
-0.273
-0.459
-0.459
-0.459
-0.459
-1.240
-1.240
-1.240
-1.240
-1.626
-1.626
-1.626
-1.626
-0.737
-0.737
-0.737
-0.737
0.438
0.438
0.438
0.438
3.500
3.500
3.500
3.500
8.441
8.441
8.441
8.441
12.076
12.076
12.076
12.076
10.900
10.900
10.900
10.900
11.542
11.542
11.542
11.542
5.936
5.936
5.936
5.936
0.291
0.291
0.291
0.291
-1.564
-1.564
-1.564
-1.564
-2.446
-2.446
-2.446
-2.446
-2.933
-2.933
-2.933
-2.933
-3.173
-3.173
-3.173
-3.173
-3.289
-3.289
-3.289
-3.289
-2.995
-2.995
-2.995
-2.995
-2.570
-2.570
-2.570
-2.570
-2.090
-2.090
-2.090
-2.090
-1.820
-1.820
-1.820
-1.820
-1.626
-1.626
-1.626
-1.626
-1.425
-1.425
-1.425
-1.425
-1.302
-1.302
-1.302
-1.302
-1.178
-1.178
-1.178
-1.178
-1.240
-1.240
-1.240
-1.240
-1.271
-1.271
-1.271
-1.271
-1.363
-1.363
-1.363
-1.363
-1.302
-1.302
-1.302
-1.302
-1.240
-1.240
-1.240
-1.240
-1.186
-1.186
-1.186
-1.186
-1.232
-1.232
-1.232
-1.232
-1.271
-1.271
-1.271
-1.271
-1.286
-1.286
-1.286
-1.286
-1.224
-1.224
-1.224
-1.224
-1.216
-1.216
-1.216
-1.216
-1.147
-1.147
-1.147
-1.147
-1.379
-1.379
-1.379
-1.379
-1.216
-1.216
-1.216
-1.216
-1.402
-1.402
-1.402
-1.402
-1.062
-1.062
-1.062
-1.062
-1.379
-1.379
-1.379
-1.379
-1.193
-1.193
-1.193
-1.193
-1.448
-1.448
-1.448
-1.448
-1.302
-1.302
-1.302
-1.302
-1.456
-1.456
-1.456
-1.456
-1.147
-1.147
-1.147
-1.147
-1.286
-1.286
-1.286
-1.286
-1.162
-1.162
-1.162
-1.162
-1.309
-1.309
-1.309
-1.309
-1.147
-1.147
-1.147
-1.147
-1.193
-1.193
-1.193
-1.193
-1.085
-1.085
-1.085
-1.085
-1.108
-1.108
-1.108
-1.108
-1.085
-1.085
-1.085
-1.085
-1.155
-1.155
-1.155
-1.155
-1.131
-1.131
-1.131
-1.131
-1.008
-1.008
-1.008
-1.008
-1.062
-1.062
-1.062
-1.062
-1.062
-1.062
-1.062
-1.062
-1.085
-1.085
-1.085
-1.085
-1.077
-1.077
-1.077
-1.077
-1.046
-1.046
-1.046
-1.046
-0.845
-0.845
-0.845
-0.845
-0.892
-0.892
-0.892
-0.892
-0.954
-0.954
-0.954
-0.954
-0.907
-0.907
-0.907
-0.907
-0.869
-0.869
-0.869
-0.869
-0.807
-0.807
-0.807
-0.807
-0.822
-0.822
-0.822
-0.822
-0.822
-0.822
-0.822
-0.822
-0.884
-0.884
-0.884
-0.884
-0.923
-0.923
-0.923
-0.923
-0.783
-0.783
-0.783
-0.783
-0.830
-0.830
-0.830
-0.830
-0.737
-0.737
-0.737
-0.737
-0.946
-0.946
-0.946
-0.946
-0.845
-0.845
-0.845
-0.845
-0.946
-0.946
-0.946
-0.946
-0.660
-0.660
-0.660
-0.660
-0.861
-0.861
-0.861
-0.861
-0.706
-0.706
-0.706
-0.706
-0.977
-0.977
-0.977
-0.977
-0.737
-0.737
-0.737
-0.737
-0.884
-0.884
-0.884
-0.884
-0.590
-0.590
-0.590
-0.590
-0.768
-0.768
-0.768
-0.768
-0.667
-0.667
-0.667
-0.667
-0.907
-0.907
-0.907
-0.907
-0.760
-0.760
-0.760
-0.760
-0.768
-0.768
-0.768
-0.768
-0.714
-0.714
-0.714
-0.714
-0.760
-0.760
-0.760
-0.760
-0.861
-0.861
-0.861
-0.861
-0.861
-0.861
-0.861
-0.861
-0.814
-0.814
-0.814
-0.814
-0.698
-0.698
-0.698
-0.698
-0.691
-0.691
-0.691
-0.691
-0.706
-0.706
-0.706
-0.706
-0.729
-0.729
-0.729
-0.729
-0.698
-0.698
-0.698
-0.698
-0.667
-0.667
-0.667
-0.667
-0.606
-0.606
-0.606
-0.606
-0.660
-0.660
-0.660
-0.660
-0.691
-0.691
-0.691
-0.691
-0.783
-0.783
-0.783
-0.783
-0.675
-0.675
-0.675
-0.675
-0.621
-0.621
-0.621
-0.621
-0.783
-0.783
-0.783
-0.783
-0.729
-0.729
-0.729
-0.729
-0.830
-0.830
-0.830
-0.830
-0.807
-0.807
-0.807
-0.807
-0.722
-0.722
-0.722
-0.722
-0.691
-0.691
-0.691
-0.691
-0.590
-0.590
-0.590
-0.590
-0.830
-0.830
-0.830
-0.830
-0.667
-0.667
-0.667
-0.667
-0.799
-0.799
-0.799
-0.799
-0.575
-0.575
-0.575
-0.575
-0.776
-0.776
-0.776
-0.776
-0.598
-0.598
-0.598
-0.598
-0.915
-0.915
-0.915
-0.915
-0.637
-0.637
-0.637
-0.637
-0.869
-0.869
-0.869
-0.869
-0.559
-0.559
-0.559
-0.559
-0.861
-0.861
-0.861
-0.861
-0.776
-0.776
-0.776
-0.776
-0.923
-0.923
-0.923
-0.923
-0.776
-0.776
-0.776
-0.776
-0.814
-0.814
-0.814
-0.814
-0.683
-0.683
-0.683
-0.683
-0.722
-0.722
-0.722
-0.722
-0.799
-0.799
-0.799
-0.799
-0.776
-0.776
-0.776
-0.776
-0.737
-0.737
-0.737
-0.737
-0.598
-0.598
-0.598
-0.598
-0.606
-0.606
-0.606
-0.606
-0.652
-0.652
-0.652
-0.652
-0.783
-0.783
-0.783
-0.783
-0.714
-0.714
-0.714
-0.714
-0.698
-0.698
-0.698
-0.698
-0.606
-0.606
-0.606
-0.606
-0.675
-0.675
-0.675
-0.675
-0.667
-0.667
-0.667
-0.667
-0.745
-0.745
-0.745
-0.745
-0.667
-0.667
-0.667
-0.667
-0.466
-0.466
-0.466
-0.466
-0.559
-0.559
-0.559
-0.559
-0.536
-0.536
-0.536
-0.536
-0.598
-0.598
-0.598
-0.598
-0.582
-0.582
-0.582
-0.582
-0.528
-0.528
-0.528
-0.528
-0.536
-0.536
-0.536
-0.536
-0.482
-0.482
-0.482
-0.482
-0.652
-0.652
-0.652
-0.652
-0.521
-0.521
-0.521
-0.521
-0.745
-0.745
-0.745
-0.745
-0.343
-0.343
-0.343
-0.343
-0.667
-0.667
-0.667
-0.667
-0.482
-0.482
-0.482
-0.482
-0.783
-0.783
-0.783
-0.783
-0.544
-0.544
-0.544
-0.544
-0.745
-0.745
-0.745
-0.745
-0.420
-0.420
-0.420
-0.420
-0.536
-0.536
-0.536
-0.536
-0.528
-0.528
-0.528
-0.528
-0.660
-0.660
-0.660
-0.660
-0.443
-0.443
-0.443
-0.443
-0.505
-0.505
-0.505
-0.505
-0.474
-0.474
-0.474
-0.474
-0.567
-0.567
-0.567
-0.567
-0.590
-0.590
-0.590
-0.590
-0.582
-0.582
-0.582
-0.582
-0.528
-0.528
-0.528
-0.528
-0.497
-0.497
-0.497
-0.497
-0.474
-0.474
-0.474
-0.474
-0.374
-0.374
-0.374
-0.374
-0.397
-0.397
-0.397
-0.397
-0.118
-0.118
-0.118
-0.118
-0.149
-0.149
-0.149
-0.149
-0.103
-0.103
-0.103
-0.103
-0.041
-0.041
-0.041
-0.041
-0.041
-0.041
-0.041
-0.041
0.222
0.222
0.222
0.222
0.469
0.469
0.469
0.469
0.075
0.075
0.075
0.075
-0.010
-0.010
-0.010
-0.010
0.052
0.052
0.052
0.052
0.168
0.168
0.168
0.168
0.438
0.438
0.438
0.438
0.709
0.709
0.709
0.709
0.554
0.554
0.554
0.554
0.291
0.291
0.291
0.291
-0.234
-0.234
-0.234
-0.234
-0.204
-0.204
-0.204
-0.204
-0.490
-0.490
-0.490
-0.490
-0.559
-0.559
-0.559
-0.559
-0.660
-0.660
-0.660
-0.660
-0.822
-0.822
-0.822
-0.822
-0.969
-0.969
-0.969
-0.969
-0.892
-0.892
-0.892
-0.892
-0.992
-0.992
-0.992
-0.992
-0.644
-0.644
-0.644
-0.644
-0.799
-0.799
-0.799
-0.799
-0.706
-0.706
-0.706
-0.706
-0.698
-0.698
-0.698
-0.698
-0.551
-0.551
-0.551
-0.551
-0.575
-0.575
-0.575
-0.575
-0.567
-0.567
-0.567
-0.567
-0.644
-0.644
-0.644
-0.644
-0.706
-0.706
-0.706
-0.706
-0.683
-0.683
-0.683
-0.683
-0.644
-0.644
-0.644
-0.644
-0.281
-0.281
-0.281
-0.281
-0.505
-0.505
-0.505
-0.505
-0.544
-0.544
-0.544
-0.544
-0.567
-0.567
-0.567
-0.567
-0.575
-0.575
-0.575
-0.575
-0.443
-0.443
-0.443
-0.443
-0.196
-0.196
-0.196
-0.196
-0.327
-0.327
-0.327
-0.327
-0.474
-0.474
-0.474
-0.474
-0.482
-0.482
-0.482
-0.482
-0.412
-0.412
-0.412
-0.412
-0.304
-0.304
-0.304
-0.304
-0.412
-0.412
-0.412
-0.412
-0.343
-0.343
-0.343
-0.343
-0.482
-0.482
-0.482
-0.482
-0.482
-0.482
-0.482
-0.482
-0.343
-0.343
-0.343
-0.343
-0.250
-0.250
-0.250
-0.250
-0.234
-0.234
-0.234
-0.234
-0.374
-0.374
-0.374
-0.374
-1.131
-1.131
-1.131
-1.131
-1.820
-1.820
-1.820
-1.820
-1.000
-1.000
-1.000
-1.000
-0.142
-0.142
-0.142
-0.142
2.928
2.928
2.928
2.928
7.088
7.088
7.088
7.088
12.192
12.192
12.192
12.192
9.509
9.509
9.509
9.509
11.743
11.743
11.743
11.743
6.949
6.949
6.949
6.949
0.817
0.817
0.817
0.817
-1.247
-1.247
-1.247
-1.247
-2.253
-2.253
-2.253
-2.253
-2.701
-2.701
-2.701
-2.701
-2.848
-2.848
-2.848
-2.848
-3.219
-3.219
-3.219
-3.219
-2.840
-2.840
-2.840
-2.840
-2.415
-2.415
-2.415
-2.415
-2.137
-2.137
-2.137
-2.137
-1.765
-1.765
-1.765
-1.765
-1.479
-1.479
-1.479
-1.479
-1.263
-1.263
-1.263
-1.263
-1.356
-1.356
-1.356
-1.356
-1.216
-1.216
-1.216
-1.216
-1.139
-1.139
-1.139
-1.139
-1.201
-1.201
-1.201
-1.201
-1.000
-1.000
-1.000
-1.000
-1.201
-1.201
-1.201
-1.201
-1.425
-1.425
-1.425
-1.425
-1.425
-1.425
-1.425
-1.425
-1.294
-1.294
-1.294
-1.294
-1.162
-1.162
-1.162
-1.162
-1.302
-1.302
-1.302
-1.302
-1.201
-1.201
-1.201
-1.201
-1.170
-1.170
-1.170
-1.170
-1.162
-1.162
-1.162
-1.162
-0.977
-0.977
-0.977
-0.977
-0.992
-0.992
-0.992
-0.992
-1.387
-1.387
-1.387
-1.387
-1.162
-1.162
-1.162
-1.162
-1.348
-1.348
-1.348
-1.348
-1.139
-1.139
-1.139
-1.139
-1.371
-1.371
-1.371
-1.371
-1.232
-1.232
-1.232
-1.232
-1.495
-1.495
-1.495
-1.495
-1.201
-1.201
-1.201
-1.201
-1.201
-1.201
-1.201
-1.201
-0.853
-0.853
-0.853
-0.853
-1.309
-1.309
-1.309
-1.309
-1.178
-1.178
-1.178
-1.178
-1.131
-1.131
-1.131
-1.131
-1.031
-1.031
-1.031
-1.031
-1.077
-1.077
-1.077
-1.077
-1.085
-1.085
-1.085
-1.085
-1.124
-1.124
-1.124
-1.124
-0.992
-0.992
-0.992
-0.992
-1.008
-1.008
-1.008
-1.008
-1.062
-1.062
-1.062
-1.062
-0.899
-0.899
-0.899
-0.899
-0.869
-0.869
-0.869
-0.869
-0.892
-0.892
-0.892
-0.892
-1.240
-1.240
-1.240
-1.240
-0.985
-0.985
-0.985
-0.985
-0.776
-0.776
-0.776
-0.776
-0.490
-0.490
-0.490
-0.490
-1.000
-1.000
-1.000
-1.000
-1.023
-1.023
-1.023
-1.023
-0.768
-0.768
-0.768
-0.768
-0.807
-0.807
-0.807
-0.807
-0.923
-0.923
-0.923
-0.923
-0.776
-0.776
-0.776
-0.776
-0.737
-0.737
-0.737
-0.737
-0.992
-0.992
-0.992
-0.992
-0.799
-0.799
-0.799
-0.799
-0.706
-0.706
-0.706
-0.706
-0.884
-0.884
-0.884
-0.884
-0.899
-0.899
-0.899
-0.899
-0.954
-0.954
-0.954
-0.954
-0.845
-0.845
-0.845
-0.845
-0.830
-0.830
-0.830
-0.830
-0.652
-0.652
-0.652
-0.652
-0.930
-0.930
-0.930
-0.930
-0.691
-0.691
-0.691
-0.691
-1.062
-1.062
-1.062
-1.062
-0.691
-0.691
-0.691
-0.691
-0.915
-0.915
-0.915
-0.915
-0.536
-0.536
-0.536
-0.536
-0.861
-0.861
-0.861
-0.861
-0.830
-0.830
-0.830
-0.830
-0.807
-0.807
-0.807
-0.807
-0.490
-0.490
-0.490
-0.490
-0.814
-0.814
-0.814
-0.814
-0.838
-0.838
-0.838
-0.838
-0.923
-0.923
-0.923
-0.923
-0.899
-0.899
-0.899
-0.899
-0.706
-0.706
-0.706
-0.706
-0.869
-0.869
-0.869
-0.869
-0.791
-0.791
-0.791
-0.791
-0.706
-0.706
-0.706
-0.706
-0.667
-0.667
-0.667
-0.667
-0.791
-0.791
-0.791
-0.791
-0.722
-0.722
-0.722
-0.722
-0.714
-0.714
-0.714
-0.714
-0.722
-0.722
-0.722
-0.722
-0.698
-0.698
-0.698
-0.698
-1.046
-1.046
-1.046
-1.046
-0.644
-0.644
-0.644
-0.644
-0.899
-0.899
-0.899
-0.899
-0.737
-0.737
-0.737
-0.737
-0.892
-0.892
-0.892
-0.892
-0.644
-0.644
-0.644
-0.644
-0.907
-0.907
-0.907
-0.907
-0.791
-0.791
-0.791
-0.791
-0.637
-0.637
-0.637
-0.637
-0.807
-0.807
-0.807
-0.807
-0.683
-0.683
-0.683
-0.683
-0.915
-0.915
-0.915
-0.915
-0.814
-0.814
-0.814
-0.814
-0.969
-0.969
-0.969
-0.969
-0.513
-0.513
-0.513
-0.513
-0.714
-0.714
-0.714
-0.714
-0.660
-0.660
-0.660
-0.660
-0.992
-0.992
-0.992
-0.992
-0.613
-0.613
-0.613
-0.613
-0.853
-0.853
-0.853
-0.853
-0.613
-0.613
-0.613
-0.613
-0.853
-0.853
-0.853
-0.853
-0.814
-0.814
-0.814
-0.814
-0.961
-0.961
-0.961
-0.961
-0.745
-0.745
-0.745
-0.745
-0.621
-0.621
-0.621
-0.621
-0.544
-0.544
-0.544
-0.544
-0.753
-0.753
-0.753
-0.753
-0.853
-0.853
-0.853
-0.853
-0.737
-0.737
-0.737
-0.737
-0.683
-0.683
-0.683
-0.683
-0.706
-0.706
-0.706
-0.706
-0.652
-0.652
-0.652
-0.652
-0.613
-0.613
-0.613
-0.613
-0.660
-0.660
-0.660
-0.660
-0.629
-0.629
-0.629
-0.629
-0.629
-0.629
-0.629
-0.629
-0.706
-0.706
-0.706
-0.706
-0.807
-0.807
-0.807
-0.807
-0.807
-0.807
-0.807
-0.807
-0.698
-0.698
-0.698
-0.698
-0.737
-0.737
-0.737
-0.737
-0.490
-0.490
-0.490
-0.490
-0.660
-0.660
-0.660
-0.660
-0.637
-0.637
-0.637
-0.637
-0.691
-0.691
-0.691
-0.691
-0.582
-0.582
-0.582
-0.582
-0.505
-0.505
-0.505
-0.505
-0.559
-0.559
-0.559
-0.559
-0.358
-0.358
-0.358
-0.358
-0.814
-0.814
-0.814
-0.814
-0.660
-0.660
-0.660
-0.660
-0.783
-0.783
-0.783
-0.783
-0.389
-0.389
-0.389
-0.389
-0.660
-0.660
-0.660
-0.660
-0.343
-0.343
-0.343
-0.343
-0.899
-0.899
-0.899
-0.899
-0.528
-0.528
-0.528
-0.528
-0.629
-0.629
-0.629
-0.629
-0.358
-0.358
-0.358
-0.358
-0.660
-0.660
-0.660
-0.660
-0.606
-0.606
-0.606
-0.606
-0.637
-0.637
-0.637
-0.637
-0.559
-0.559
-0.559
-0.559
-0.428
-0.428
-0.428
-0.428
-0.521
-0.521
-0.521
-0.521
-0.590
-0.590
-0.590
-0.590
-0.698
-0.698
-0.698
-0.698
-0.443
-0.443
-0.443
-0.443
-0.343
-0.343
-0.343
-0.343
-0.412
-0.412
-0.412
-0.412
-0.173
-0.173
-0.173
-0.173
-0.265
-0.265
-0.265
-0.265
-0.196
-0.196
-0.196
-0.196
-0.088
-0.088
-0.088
-0.088
0.005
0.005
0.005
0.005
0.098
0.098
0.098
0.098
0.338
0.338
0.338
0.338
-0.018
-0.018
-0.018
-0.018
-0.049
-0.049
-0.049
-0.049
-0.118
-0.118
-0.118
-0.118
0.407
0.407
0.407
0.407
0.461
0.461
0.461
0.461
0.570
0.570
0.570
0.570
0.322
0.322
0.322
0.322
0.160
0.160
0.160
0.160
-0.118
-0.118
-0.118
-0.118
-0.265
-0.265
-0.265
-0.265
-0.397
-0.397
-0.397
-0.397
-0.861
-0.861
-0.861
-0.861
-0.683
-0.683
-0.683
-0.683
-0.923
-0.923
-0.923
-0.923
-0.582
-0.582
-0.582
-0.582
-1.162
-1.162
-1.162
-1.162
-0.737
-0.737
-0.737
-0.737
-0.853
-0.853
-0.853
-0.853
-0.613
-0.613
-0.613
-0.613
-0.714
-0.714
-0.714
-0.714
-0.536
-0.536
-0.536
-0.536
-0.521
-0.521
-0.521
-0.521
-0.590
-0.590
-0.590
-0.590
-0.644
-0.644
-0.644
-0.644
-0.559
-0.559
-0.559
-0.559
-0.567
-0.567
-0.567
-0.567
-0.606
-0.606
-0.606
-0.606
-0.598
-0.598
-0.598
-0.598
-0.567
-0.567
-0.567
-0.567
-0.521
-0.521
-0.521
-0.521
-0.513
-0.513
-0.513
-0.513
-0.381
-0.381
-0.381
-0.381
-0.466
-0.466
-0.466
-0.466
-0.536
-0.536
-0.536
-0.536
-0.490
-0.490
-0.490
-0.490
-0.466
-0.466
-0.466
-0.466
-0.389
-0.389
-0.389
-0.389
-0.412
-0.412
-0.412
-0.412
-0.474
-0.474
-0.474
-0.474
-0.590
-0.590
-0.590
-0.590
-0.513
-0.513
-0.513
-0.513
-0.559
-0.559
-0.559
-0.559
-0.459
-0.459
-0.459
-0.459
-0.435
-0.435
-0.435
-0.435
-0.559
-0.559
-0.559
-0.559
-0.551
-0.551
-0.551
-0.551
-0.807
-0.807
-0.807
-0.807
-0.853
-0.853
-0.853
-0.853
-1.526
-1.526
-1.526
-1.526
-2.299
-2.299
-2.299
-2.299
-2.523
-2.523
-2.523
-2.523
-1.696
-1.696
-1.696
-1.696
0.500
0.500
0.500
0.500
4.413
4.413
4.413
4.413
10.367
10.367
10.367
10.367
8.998
8.998
8.998
8.998
10.328
10.328
10.328
10.328
7.784
7.784
7.784
7.784
1.668
1.668
1.668
1.668
-0.405
-0.405
-0.405
-0.405
-2.028
-2.028
-2.028
-2.028
-2.454
-2.454
-2.454
-2.454
-2.732
-2.732
-2.732
-2.732
-2.724
-2.724
-2.724
-2.724
-2.632
-2.632
-2.632
-2.632
-2.361
-2.361
-2.361
-2.361
-1.990
-1.990
-1.990
-1.990
-1.680
-1.680
-1.680
-1.680
-1.394
-1.394
-1.394
-1.394
-1.302
-1.302
-1.302
-1.302
-1.131
-1.131
-1.131
-1.131
-1.155
-1.155
-1.155
-1.155
-1.232
-1.232
-1.232
-1.232
-1.255
-1.255
-1.255
-1.255
-1.232
-1.232
-1.232
-1.232
-1.209
-1.209
-1.209
-1.209
-1.325
-1.325
-1.325
-1.325
-1.286
-1.286
-1.286
-1.286
-1.441
-1.441
-1.441
-1.441
-1.410
-1.410
-1.410
-1.410
-1.356
-1.356
-1.356
-1.356
-1.240
-1.240
-1.240
-1.240
-1.387
-1.387
-1.387
-1.387
-1.410
-1.410
-1.410
-1.410
-1.410
-1.410
-1.410
-1.410
-1.348
-1.348
-1.348
-1.348
-1.263
-1.263
-1.263
-1.263
-1.348
-1.348
-1.348
-1.348
-1.278
-1.278
-1.278
-1.278
-1.487
-1.487
-1.487
-1.487
-1.240
-1.240
-1.240
-1.240
-1.495
-1.495
-1.495
-1.495
-1.201
-1.201
-1.201
-1.201
-1.464
-1.464
-1.464
-1.464
-1.232
-1.232
-1.232
-1.232
-1.510
-1.510
-1.510
-1.510
-1.186
-1.186
-1.186
-1.186
-1.278
-1.278
-1.278
-1.278
-1.124
-1.124
-1.124
-1.124
-1.302
-1.302
-1.302
-1.302
-1.193
-1.193
-1.193
-1.193
-1.216
-1.216
-1.216
-1.216
-1.124
-1.124
-1.124
-1.124
-1.085
-1.085
-1.085
-1.085
-1.062
-1.062
-1.062
-1.062
-1.054
-1.054
-1.054
-1.054
-1.054
-1.054
-1.054
-1.054
-1.031
-1.031
-1.031
-1.031
-1.023
-1.023
-1.023
-1.023
-0.961
-0.961
-0.961
-0.961
-1.023
-1.023
-1.023
-1.023
-1.062
-1.062
-1.062
-1.062
-1.015
-1.015
-1.015
-1.015
-0.969
-0.969
-0.969
-0.969
-0.845
-0.845
-0.845
-0.845
-0.899
-0.899
-0.899
-0.899
-0.930
-0.930
-0.930
-0.930
-0.923
-0.923
-0.923
-0.923
-0.807
-0.807
-0.807
-0.807
-0.869
-0.869
-0.869
-0.869
-0.737
-0.737
-0.737
-0.737
-0.838
-0.838
-0.838
-0.838
-0.830
-0.830
-0.830
-0.830
-0.884
-0.884
-0.884
-0.884
-0.814
-0.814
-0.814
-0.814
-0.760
-0.760
-0.760
-0.760
-0.899
-0.899
-0.899
-0.899
-0.830
-0.830
-0.830
-0.830
-1.062
-1.062
-1.062
-1.062
-0.753
-0.753
-0.753
-0.753
-0.977
-0.977
-0.977
-0.977
-0.613
-0.613
-0.613
-0.613
-0.954
-0.954
-0.954
-0.954
-0.652
-0.652
-0.652
-0.652
-0.954
-0.954
-0.954
-0.954
-0.629
-0.629
-0.629
-0.629
-0.760
-0.760
-0.760
-0.760
-0.652
-0.652
-0.652
-0.652
-0.799
-0.799
-0.799
-0.799
-0.807
-0.807
-0.807
-0.807
-0.830
-0.830
-0.830
-0.830
-0.745
-0.745
-0.745
-0.745
-0.729
-0.729
-0.729
-0.729
-0.783
-0.783
-0.783
-0.783
-0.814
-0.814
-0.814
-0.814
-0.799
-0.799
-0.799
-0.799
-0.807
-0.807
-0.807
-0.807
-0.598
-0.598
-0.598
-0.598
-0.698
-0.698
-0.698
-0.698
-0.753
-0.753
-0.753
-0.753
-0.760
-0.760
-0.760
-0.760
-0.691
-0.691
-0.691
-0.691
-0.753
-0.753
-0.753
-0.753
-0.613
-0.613
-0.613
-0.613
-0.714
-0.714
-0.714
-0.714
-0.768
-0.768
-0.768
-0.768
-0.822
-0.822
-0.822
-0.822
-0.714
-0.714
-0.714
-0.714
-0.667
-0.667
-0.667
-0.667
-0.714
-0.714
-0.714
-0.714
-0.776
-0.776
-0.776
-0.776
-0.768
-0.768
-0.768
-0.768
-0.807
-0.807
-0.807
-0.807
-0.745
-0.745
-0.745
-0.745
-0.637
-0.637
-0.637
-0.637
-0.807
-0.807
-0.807
-0.807
-0.652
-0.652
-0.652
-0.652
-0.838
-0.838
-0.838
-0.838
-0.559
-0.559
-0.559
-0.559
-0.853
-0.853
-0.853
-0.853
-0.497
-0.497
-0.497
-0.497
-0.853
-0.853
-0.853
-0.853
-0.691
-0.691
-0.691
-0.691
-0.853
-0.853
-0.853
-0.853
-0.606
-0.606
-0.606
-0.606
-0.783
-0.783
-0.783
-0.783
-0.675
-0.675
-0.675
-0.675
-0.814
-0.814
-0.814
-0.814
-0.783
-0.783
-0.783
-0.783
-0.807
-0.807
-0.807
-0.807
-0.729
-0.729
-0.729
-0.729
-0.675
-0.675
-0.675
-0.675
-0.737
-0.737
-0.737
-0.737
-0.768
-0.768
-0.768
-0.768
-0.737
-0.737
-0.737
-0.737
-0.652
-0.652
-0.652
-0.652
-0.575
-0.575
-0.575
-0.575
-0.598
-0.598
-0.598
-0.598
-0.621
-0.621
-0.621
-0.621
-0.698
-0.698
-0.698
-0.698
-0.706
-0.706
-0.706
-0.706
-0.667
-0.667
-0.667
-0.667
-0.590
-0.590
-0.590
-0.590
-0.691
-0.691
-0.691
-0.691
-0.714
-0.714
-0.714
-0.714
-0.698
-0.698
-0.698
-0.698
-0.606
-0.606
-0.606
-0.606
-0.536
-0.536
-0.536
-0.536
-0.505
-0.505
-0.505
-0.505
-0.575
-0.575
-0.575
-0.575
-0.606
-0.606
-0.606
-0.606
-0.474
-0.474
-0.474
-0.474
-0.521
-0.521
-0.521
-0.521
-0.451
-0.451
-0.451
-0.451
-0.598
-0.598
-0.598
-0.598
-0.405
-0.405
-0.405
-0.405
-0.698
-0.698
-0.698
-0.698
-0.428
-0.428
-0.428
-0.428
-0.644
-0.644
-0.644
-0.644
-0.343
-0.343
-0.343
-0.343
-0.644
-0.644
-0.644
-0.644
-0.528
-0.528
-0.528
-0.528
-0.753
-0.753
-0.753
-0.753
-0.420
-0.420
-0.420
-0.420
-0.521
-0.521
-0.521
-0.521
-0.474
-0.474
-0.474
-0.474
-0.559
-0.559
-0.559
-0.559
-0.490
-0.490
-0.490
-0.490
-0.536
-0.536
-0.536
-0.536
-0.443
-0.443
-0.443
-0.443
-0.435
-0.435
-0.435
-0.435
-0.482
-0.482
-0.482
-0.482
-0.575
-0.575
-0.575
-0.575
-0.513
-0.513
-0.513
-0.513
-0.312
-0.312
-0.312
-0.312
-0.234
-0.234
-0.234
-0.234
-0.126
-0.126
-0.126
-0.126
-0.142
-0.142
-0.142
-0.142
-0.180
-0.180
-0.180
-0.180
-0.010
-0.010
-0.010
-0.010
0.044
0.044
0.044
0.044
0.345
0.345
0.345
0.345
0.500
0.500
0.500
0.500
0.175
0.175
0.175
0.175
-0.088
-0.088
-0.088
-0.088
0.152
0.152
0.152
0.152
0.299
0.299
0.299
0.299
0.461
0.461
0.461
0.461
0.655
0.655
0.655
0.655
0.500
0.500
0.500
0.500
0.423
0.423
0.423
0.423
-0.142
-0.142
-0.142
-0.142
-0.180
-0.180
-0.180
-0.180
-0.358
-0.358
-0.358
-0.358
-0.675
-0.675
-0.675
-0.675
-0.853
-0.853
-0.853
-0.853
-0.660
-0.660
-0.660
-0.660
-0.899
-0.899
-0.899
-0.899
-0.606
-0.606
-0.606
-0.606
-0.876
-0.876
-0.876
-0.876
-0.683
-0.683
-0.683
-0.683
-0.722
-0.722
-0.722
-0.722
-0.621
-0.621
-0.621
-0.621
-0.629
-0.629
-0.629
-0.629
-0.405
-0.405
-0.405
-0.405
-0.590
-0.590
-0.590
-0.590
-0.505
-0.505
-0.505
-0.505
-0.590
-0.590
-0.590
-0.590
-0.435
-0.435
-0.435
-0.435
-0.513
-0.513
-0.513
-0.513
-0.490
-0.490
-0.490
-0.490
-0.536
-0.536
-0.536
-0.536
-0.528
-0.528
-0.528
-0.528
-0.482
-0.482
-0.482
-0.482
-0.335
-0.335
-0.335
-0.335
-0.412
-0.412
-0.412
-0.412
-0.412
-0.412
-0.412
-0.412
-0.466
-0.466
-0.466
-0.466
-0.343
-0.343
-0.343
-0.343
-0.405
-0.405
-0.405
-0.405
-0.289
-0.289
-0.289
-0.289
-0.397
-0.397
-0.397
-0.397
-0.459
-0.459
-0.459
-0.459
-0.490
-0.490
-0.490
-0.490
-0.451
-0.451
-0.451
-0.451
-0.428
-0.428
-0.428
-0.428
-0.350
-0.350
-0.350
-0.350
-0.459
-0.459
-0.459
-0.459
-0.428
-0.428
-0.428
-0.428
-0.505
-0.505
-0.505
-0.505
-0.358
-0.358
-0.358
-0.358
-0.783
-0.783
-0.783
-0.783
-2.059
-2.059
-2.059
-2.059
-1.479
-1.479
-1.479
-1.479
-1.008
-1.008
-1.008
-1.008
1.675
1.675
1.675
1.675
5.464
5.464
5.464
5.464
11.573
11.573
11.573
11.573
10.630
10.630
10.630
10.630
13.158
13.158
13.158
13.158
8.851
8.851
8.851
8.851
2.797
2.797
2.797
2.797
-0.737
-0.737
-0.737
-0.737
-2.121
-2.121
-2.121
-2.121
-2.941
-2.941
-2.941
-2.941
-3.173
-3.173
-3.173
-3.173
-3.351
-3.351
-3.351
-3.351
-3.095
-3.095
-3.095
-3.095
-2.840
-2.840
-2.840
-2.840
-2.438
-2.438
-2.438
-2.438
-2.075
-2.075
-2.075
-2.075
-1.696
-1.696
-1.696
-1.696
-1.464
-1.464
-1.464
-1.464
-1.271
-1.271
-1.271
-1.271
-1.240
-1.240
-1.240
-1.240
-1.263
-1.263
-1.263
-1.263
-1.309
-1.309
-1.309
-1.309
-1.201
-1.201
-1.201
-1.201
-1.240
-1.240
-1.240
-1.240
-1.201
-1.201
-1.201
-1.201
-1.387
-1.387
-1.387
-1.387
-1.363
-1.363
-1.363
-1.363
-1.325
-1.325
-1.325
-1.325
-1.263
-1.263
-1.263
-1.263
-1.162
-1.162
-1.162
-1.162
-1.186
-1.186
-1.186
-1.186
-1.247
-1.247
-1.247
-1.247
-1.232
-1.232
-1.232
-1.232
-1.201
-1.201
-1.201
-1.201
-1.255
-1.255
-1.255
-1.255
-1.116
-1.116
-1.116
-1.116
-1.317
-1.317
-1.317
-1.317
-1.193
-1.193
-1.193
-1.193
-1.363
-1.363
-1.363
-1.363
-1.162
-1.162
-1.162
-1.162
-1.302
-1.302
-1.302
-1.302
-1.054
-1.054
-1.054
-1.054
-1.294
-1.294
-1.294
-1.294
-1.178
-1.178
-1.178
-1.178
-1.363
-1.363
-1.363
-1.363
-1.062
-1.062
-1.062
-1.062
-1.162
-1.162
-1.162
-1.162
-1.046
-1.046
-1.046
-1.046
-1.155
-1.155
-1.155
-1.155
-1.062
-1.062
-1.062
-1.062
-1.062
-1.062
-1.062
-1.062
-0.954
-0.954
-0.954
-0.954
-1.000
-1.000
-1.000
-1.000
-0.977
-0.977
-0.977
-0.977
-1.046
-1.046
-1.046
-1.046
-0.969
-0.969
-0.969
-0.969
-0.930
-0.930
-0.930
-0.930
-0.838
-0.838
-0.838
-0.838
-0.954
-0.954
-0.954
-0.954
-0.923
-0.923
-0.923
-0.923
-0.977
-0.977
-0.977
-0.977
-0.853
-0.853
-0.853
-0.853
-0.899
-0.899
-0.899
-0.899
-0.776
-0.776
-0.776
-0.776
-0.861
-0.861
-0.861
-0.861
-0.853
-0.853
-0.853
-0.853
-0.807
-0.807
-0.807
-0.807
-0.753
-0.753
-0.753
-0.753
-0.652
-0.652
-0.652
-0.652
-0.714
-0.714
-0.714
-0.714
-0.776
-0.776
-0.776
-0.776
-0.799
-0.799
-0.799
-0.799
-0.698
-0.698
-0.698
-0.698
-0.729
-0.729
-0.729
-0.729
-0.613
-0.613
-0.613
-0.613
-0.838
-0.838
-0.838
-0.838
-0.722
-0.722
-0.722
-0.722
-0.930
-0.930
-0.930
-0.930
-0.714
-0.714
-0.714
-0.714
-0.729
-0.729
-0.729
-0.729
-0.606
-0.606
-0.606
-0.606
-0.814
-0.814
-0.814
-0.814
-0.644
-0.644
-0.644
-0.644
-0.791
-0.791
-0.791
-0.791
-0.590
-0.590
-0.590
-0.590
-0.675
-0.675
-0.675
-0.675
-0.613
-0.613
-0.613
-0.613
-0.822
-0.822
-0.822
-0.822
-0.691
-0.691
-0.691
-0.691
-0.714
-0.714
-0.714
-0.714
-0.683
-0.683
-0.683
-0.683
-0.652
-0.652
-0.652
-0.652
-0.706
-0.706
-0.706
-0.706
-0.845
-0.845
-0.845
-0.845
-0.799
-0.799
-0.799
-0.799
-0.737
-0.737
-0.737
-0.737
-0.606
-0.606
-0.606
-0.606
-0.675
-0.675
-0.675
-0.675
-0.675
-0.675
-0.675
-0.675
-0.714
-0.714
-0.714
-0.714
-0.613
-0.613
-0.613
-0.613
-0.613
-0.613
-0.613
-0.613
-0.544
-0.544
-0.544
-0.544
-0.629
-0.629
-0.629
-0.629
-0.667
-0.667
-0.667
-0.667
-0.714
-0.714
-0.714
-0.714
-0.706
-0.706
-0.706
-0.706
-0.660
-0.660
-0.660
-0.660
-0.737
-0.737
-0.737
-0.737
-0.706
-0.706
-0.706
-0.706
-0.768
-0.768
-0.768
-0.768
-0.698
-0.698
-0.698
-0.698
-0.691
-0.691
-0.691
-0.691
-0.575
-0.575
-0.575
-0.575
-0.745
-0.745
-0.745
-0.745
-0.637
-0.637
-0.637
-0.637
-0.760
-0.760
-0.760
-0.760
-0.567
-0.567
-0.567
-0.567
-0.683
-0.683
-0.683
-0.683
-0.482
-0.482
-0.482
-0.482
-0.799
-0.799
-0.799
-0.799
-0.644
-0.644
-0.644
-0.644
-0.799
-0.799
-0.799
-0.799
-0.567
-0.567
-0.567
-0.567
-0.737
-0.737
-0.737
-0.737
-0.637
-0.637
-0.637
-0.637
-0.853
-0.853
-0.853
-0.853
-0.675
-0.675
-0.675
-0.675
-0.745
-0.745
-0.745
-0.745
-0.582
-0.582
-0.582
-0.582
-0.629
-0.629
-0.629
-0.629
-0.559
-0.559
-0.559
-0.559
-0.652
-0.652
-0.652
-0.652
-0.528
-0.528
-0.528
-0.528
-0.551
-0.551
-0.551
-0.551
-0.459
-0.459
-0.459
-0.459
-0.582
-0.582
-0.582
-0.582
-0.590
-0.590
-0.590
-0.590
-0.629
-0.629
-0.629
-0.629
-0.567
-0.567
-0.567
-0.567
-0.590
-0.590
-0.590
-0.590
-0.521
-0.521
-0.521
-0.521
-0.590
-0.590
-0.590
-0.590
-0.660
-0.660
-0.660
-0.660
-0.660
-0.660
-0.660
-0.660
-0.559
-0.559
-0.559
-0.559
-0.466
-0.466
-0.466
-0.466
-0.551
-0.551
-0.551
-0.551
-0.544
-0.544
-0.544
-0.544
-0.559
-0.559
-0.559
-0.559
-0.497
-0.497
-0.497
-0.497
-0.497
-0.497
-0.497
-0.497
-0.389
-0.389
-0.389
-0.389
-0.505
-0.505
-0.505
-0.505
-0.459
-0.459
-0.459
-0.459
-0.613
-0.613
-0.613
-0.613
-0.420
-0.420
-0.420
-0.420
-0.613
-0.613
-0.613
-0.613
-0.459
-0.459
-0.459
-0.459
-0.621
-0.621
-0.621
-0.621
-0.536
-0.536
-0.536
-0.536
-0.652
-0.652
-0.652
-0.652
-0.428
-0.428
-0.428
-0.428
-0.497
-0.497
-0.497
-0.497
-0.459
-0.459
-0.459
-0.459
-0.644
-0.644
-0.644
-0.644
-0.505
-0.505
-0.505
-0.505
-0.551
-0.551
-0.551
-0.551
-0.397
-0.397
-0.397
-0.397
-0.343
-0.343
-0.343
-0.343
-0.219
-0.219
-0.219
-0.219
-0.211
-0.211
-0.211
-0.211
-0.033
-0.033
-0.033
-0.033
-0.026
-0.026
-0.026
-0.026
0.021
0.021
0.021
0.021
-0.041
-0.041
-0.041
-0.041
0.098
0.098
0.098
0.098
0.260
0.260
0.260
0.260
0.477
0.477
0.477
0.477
0.036
0.036
0.036
0.036
0.121
0.121
0.121
0.121
0.098
0.098
0.098
0.098
0.268
0.268
0.268
0.268
0.516
0.516
0.516
0.516
0.779
0.779
0.779
0.779
0.624
0.624
0.624
0.624
0.222
0.222
0.222
0.222
-0.265
-0.265
-0.265
-0.265
-0.242
-0.242
-0.242
-0.242
-0.505
-0.505
-0.505
-0.505
-0.737
-0.737
-0.737
-0.737
-0.629
-0.629
-0.629
-0.629
-0.930
-0.930
-0.930
-0.930
-0.853
-0.853
-0.853
-0.853
-0.923
-0.923
-0.923
-0.923
-0.745
-0.745
-0.745
-0.745
-0.807
-0.807
-0.807
-0.807
-0.637
-0.637
-0.637
-0.637
-0.830
-0.830
-0.830
-0.830
-0.505
-0.505
-0.505
-0.505
-0.629
-0.629
-0.629
-0.629
-0.451
-0.451
-0.451
-0.451
-0.598
-0.598
-0.598
-0.598
-0.551
-0.551
-0.551
-0.551
-0.698
-0.698
-0.698
-0.698
-0.497
-0.497
-0.497
-0.497
-0.513
-0.513
-0.513
-0.513
-0.428
-0.428
-0.428
-0.428
-0.582
-0.582
-0.582
-0.582
-0.497
-0.497
-0.497
-0.497
-0.621
-0.621
-0.621
-0.621
-0.482
-0.482
-0.482
-0.482
-0.428
-0.428
-0.428
-0.428
-0.405
-0.405
-0.405
-0.405
-0.497
-0.497
-0.497
-0.497
-0.435
-0.435
-0.435
-0.435
-0.420
-0.420
-0.420
-0.420
-0.397
-0.397
-0.397
-0.397
-0.397
-0.397
-0.397
-0.397
-0.397
-0.397
-0.397
-0.397
-0.474
-0.474
-0.474
-0.474
-0.459
-0.459
-0.459
-0.459
-0.327
-0.327
-0.327
-0.327
-0.521
-0.521
-0.521
-0.521
-0.273
-0.273
-0.273
-0.273
-0.420
-0.420
-0.420
-0.420
-0.443
-0.443
-0.443
-0.443
-1.425
-1.425
-1.425
-1.425
-1.680
-1.680
-1.680
-1.680
-1.031
-1.031
-1.031
-1.031
0.338
0.338
0.338
0.338
2.913
2.913
2.913
2.913
7.908
7.908
7.908
7.908
12.068
12.068
12.068
12.068
10.723
10.723
10.723
10.723
11.983
11.983
11.983
11.983
6.849
6.849
6.849
6.849
0.508
0.508
0.508
0.508
-1.271
-1.271
-1.271
-1.271
-2.562
-2.562
-2.562
-2.562
-2.778
-2.778
-2.778
-2.778
-3.242
-3.242
-3.242
-3.242
-3.273
-3.273
-3.273
-3.273
-3.250
-3.250
-3.250
-3.250
-2.724
-2.724
-2.724
-2.724
-2.345
-2.345
-2.345
-2.345
-1.812
-1.812
-1.812
-1.812
-1.696
-1.696
-1.696
-1.696
-1.425
-1.425
-1.425
-1.425
-1.325
-1.325
-1.325
-1.325
-1.247
-1.247
-1.247
-1.247
-1.224
-1.224
-1.224
-1.224
-1.155
-1.155
-1.155
-1.155
-1.286
-1.286
-1.286
-1.286
-1.286
-1.286
-1.286
-1.286
-1.294
-1.294
-1.294
-1.294
-1.247
-1.247
-1.247
-1.247
-1.271
-1.271
-1.271
-1.271
-1.278
-1.278
-1.278
-1.278
-1.348
-1.348
-1.348
-1.348
-1.425
-1.425
-1.425
-1.425
-1.302
-1.302
-1.302
-1.302
-1.317
-1.317
-1.317
-1.317
-1.224
-1.224
-1.224
-1.224
-1.294
-1.294
-1.294
-1.294
-1.294
-1.294
-1.294
-1.294
-1.224
-1.224
-1.224
-1.224
-1.193
-1.193
-1.193
-1.193
-1.247
-1.247
-1.247
-1.247
-1.131
-1.131
-1.131
-1.131
-1.317
-1.317
-1.317
-1.317
-1.232
-1.232
-1.232
-1.232
-1.317
-1.317
-1.317
-1.317
-1.070
-1.070
-1.070
-1.070
-1.302
-1.302
-1.302
-1.302
-1.155
-1.155
-1.155
-1.155
-1.394
-1.394
-1.394
-1.394
-1.116
-1.116
-1.116
-1.116
-1.255
-1.255
-1.255
-1.255
-0.977
-0.977
-0.977
-0.977
-1.124
-1.124
-1.124
-1.124
-1.031
-1.031
-1.031
-1.031
-1.170
-1.170
-1.170
-1.170
-0.930
-0.930
-0.930
-0.930
-1.062
-1.062
-1.062
-1.062
-0.869
-0.869
-0.869
-0.869
-1.000
-1.000
-1.000
-1.000
-0.923
-0.923
-0.923
-0.923
-1.062
-1.062
-1.062
-1.062
-0.907
-0.907
-0.907
-0.907
-0.899
-0.899
-0.899
-0.899
-0.869
-0.869
-0.869
-0.869
-0.969
-0.969
-0.969
-0.969
-0.961
-0.961
-0.961
-0.961
-0.930
-0.930
-0.930
-0.930
-0.876
-0.876
-0.876
-0.876
-0.776
-0.776
-0.776
-0.776
-0.830
-0.830
-0.830
-0.830
-0.838
-0.838
-0.838
-0.838
-0.869
-0.869
-0.869
-0.869
-0.753
-0.753
-0.753
-0.753
-0.729
-0.729
-0.729
-0.729
-0.683
-0.683
-0.683
-0.683
-0.760
-0.760
-0.760
-0.760
-0.791
-0.791
-0.791
-0.791
-0.737
-0.737
-0.737
-0.737
-0.737
-0.737
-0.737
-0.737
-0.722
-0.722
-0.722
-0.722
-0.675
-0.675
-0.675
-0.675
-0.838
-0.838
-0.838
-0.838
-0.768
-0.768
-0.768
-0.768
-0.915
-0.915
-0.915
-0.915
-0.637
-0.637
-0.637
-0.637
-0.807
-0.807
-0.807
-0.807
-0.706
-0.706
-0.706
-0.706
-0.876
-0.876
-0.876
-0.876
-0.644
-0.644
-0.644
-0.644
-0.838
-0.838
-0.838
-0.838
-0.590
-0.590
-0.590
-0.590
-0.760
-0.760
-0.760
-0.760
-0.667
-0.667
-0.667
-0.667
-0.907
-0.907
-0.907
-0.907
-0.683
-0.683
-0.683
-0.683
-0.760
-0.760
-0.760
-0.760
-0.652
-0.652
-0.652
-0.652
-0.861
-0.861
-0.861
-0.861
-0.722
-0.722
-0.722
-0.722
-0.807
-0.807
-0.807
-0.807
-0.706
-0.706
-0.706
-0.706
-0.691
-0.691
-0.691
-0.691
-0.621
-0.621
-0.621
-0.621
-0.783
-0.783
-0.783
-0.783
-0.729
-0.729
-0.729
-0.729
-0.729
-0.729
-0.729
-0.729
-0.675
-0.675
-0.675
-0.675
-0.621
-0.621
-0.621
-0.621
-0.706
-0.706
-0.706
-0.706
-0.706
-0.706
-0.706
-0.706
-0.768
-0.768
-0.768
-0.768
-0.691
-0.691
-0.691
-0.691
-0.714
-0.714
-0.714
-0.714
-0.698
-0.698
-0.698
-0.698
-0.807
-0.807
-0.807
-0.807
-0.838
-0.838
-0.838
-0.838
-0.807
-0.807
-0.807
-0.807
-0.722
-0.722
-0.722
-0.722
-0.691
-0.691
-0.691
-0.691
-0.675
-0.675
-0.675
-0.675
-0.830
-0.830
-0.830
-0.830
-0.698
-0.698
-0.698
-0.698
-0.783
-0.783
-0.783
-0.783
-0.582
-0.582
-0.582
-0.582
-0.814
-0.814
-0.814
-0.814
-0.629
-0.629
-0.629
-0.629
-0.876
-0.876
-0.876
-0.876
-0.652
-0.652
-0.652
-0.652
-0.853
-0.853
-0.853
-0.853
-0.683
-0.683
-0.683
-0.683
-0.830
-0.830
-0.830
-0.830
-0.714
-0.714
-0.714
-0.714
-0.977
-0.977
-0.977
-0.977
-0.714
-0.714
-0.714
-0.714
-0.799
-0.799
-0.799
-0.799
-0.629
-0.629
-0.629
-0.629
-0.783
-0.783
-0.783
-0.783
-0.737
-0.737
-0.737
-0.737
-0.745
-0.745
-0.745
-0.745
-0.590
-0.590
-0.590
-0.590
-0.582
-0.582
-0.582
-0.582
-0.528
-0.528
-0.528
-0.528
-0.644
-0.644
-0.644
-0.644
-0.706
-0.706
-0.706
-0.706
-0.644
-0.644
-0.644
-0.644
-0.606
-0.606
-0.606
-0.606
-0.613
-0.613
-0.613
-0.613
-0.637
-0.637
-0.637
-0.637
-0.652
-0.652
-0.652
-0.652
-0.729
-0.729
-0.729
-0.729
-0.644
-0.644
-0.644
-0.644
-0.582
-0.582
-0.582
-0.582
-0.528
-0.528
-0.528
-0.528
-0.629
-0.629
-0.629
-0.629
-0.613
-0.613
-0.613
-0.613
-0.559
-0.559
-0.559
-0.559
-0.482
-0.482
-0.482
-0.482
-0.482
-0.482
-0.482
-0.482
-0.505
-0.505
-0.505
-0.505
-0.606
-0.606
-0.606
-0.606
-0.575
-0.575
-0.575
-0.575
-0.606
-0.606
-0.606
-0.606
-0.405
-0.405
-0.405
-0.405
-0.637
-0.637
-0.637
-0.637
-0.559
-0.559
-0.559
-0.559
-0.768
-0.768
-0.768
-0.768
-0.551
-0.551
-0.551
-0.551
-0.737
-0.737
-0.737
-0.737
-0.466
-0.466
-0.466
-0.466
-0.667
-0.667
-0.667
-0.667
-0.528
-0.528
-0.528
-0.528
-0.652
-0.652
-0.652
-0.652
-0.435
-0.435
-0.435
-0.435
-0.412
-0.412
-0.412
-0.412
-0.196
-0.196
-0.196
-0.196
-0.196
-0.196
-0.196
-0.196
-0.118
-0.118
-0.118
-0.118
-0.173
-0.173
-0.173
-0.173
-0.010
-0.010
-0.010
-0.010
0.005
0.005
0.005
0.005
0.160
0.160
0.160
0.160
0.361
0.361
0.361
0.361
0.330
0.330
0.330
0.330
-0.111
-0.111
-0.111
-0.111
0.098
0.098
0.098
0.098
0.214
0.214
0.214
0.214
0.338
0.338
0.338
0.338
0.516
0.516
0.516
0.516
0.663
0.663
0.663
0.663
0.531
0.531
0.531
0.531
0.059
0.059
0.059
0.059
-0.234
-0.234
-0.234
-0.234
-0.234
-0.234
-0.234
-0.234
-0.683
-0.683
-0.683
-0.683
-0.729
-0.729
-0.729
-0.729
-0.722
-0.722
-0.722
-0.722
-0.838
-0.838
-0.838
-0.838
-0.838
-0.838
-0.838
-0.838
-0.845
-0.845
-0.845
-0.845
-0.845
-0.845
-0.845
-0.845
-0.892
-0.892
-0.892
-0.892
-0.613
-0.613
-0.613
-0.613
-0.753
-0.753
-0.753
-0.753
-0.528
-0.528
-0.528
-0.528
-0.760
-0.760
-0.760
-0.760
-0.551
-0.551
-0.551
-0.551
-0.737
-0.737
-0.737
-0.737
-0.428
-0.428
-0.428
-0.428
-0.621
-0.621
-0.621
-0.621
-0.497
-0.497
-0.497
-0.497
-0.660
-0.660
-0.660
-0.660
-0.443
-0.443
-0.443
-0.443
-0.567
-0.567
-0.567
-0.567
-0.490
-0.490
-0.490
-0.490
-0.621
-0.621
-0.621
-0.621
-0.590
-0.590
-0.590
-0.590
-0.613
-0.613
-0.613
-0.613
-0.490
-0.490
-0.490
-0.490
-0.412
-0.412
-0.412
-0.412
-0.405
-0.405
-0.405
-0.405
-0.513
-0.513
-0.513
-0.513
-0.435
-0.435
-0.435
-0.435
-0.435
-0.435
-0.435
-0.435
-0.443
-0.443
-0.443
-0.443
-0.420
-0.420
-0.420
-0.420
-0.459
-0.459
-0.459
-0.459
-0.374
-0.374
-0.374
-0.374
-0.521
-0.521
-0.521
-0.521
-0.281
-0.281
-0.281
-0.281
-0.265
-0.265
-0.265
-0.265
-0.320
-0.320
-0.320
-0.320
-1.534
-1.534
-1.534
-1.534
-1.603
-1.603
-1.603
-1.603
-0.915
-0.915
-0.915
-0.915
0.771
0.771
0.771
0.771
3.756
3.756
3.756
3.756
9.091
9.091
9.091
9.091
11.766
11.766
11.766
11.766
11.256
11.256
11.256
11.256
10.978
10.978
10.978
10.978
5.511
5.511
5.511
5.511
-0.080
-0.080
-0.080
-0.080
-1.425
-1.425
-1.425
-1.425
-2.693
-2.693
-2.693
-2.693
-2.763
-2.763
-2.763
-2.763
-3.173
-3.173
-3.173
-3.173
-3.080
-3.080
-3.080
-3.080
-3.080
-3.080
-3.080
-3.080
-2.562
-2.562
-2.562
-2.562
-2.376
-2.376
-2.376
-2.376
-1.835
-1.835
-1.835
-1.835
-1.564
-1.564
-1.564
-1.564
-1.278
-1.278
-1.278
-1.278
-1.363
-1.363
-1.363
-1.363
-1.124
-1.124
-1.124
-1.124
-1.271
-1.271
-1.271
-1.271
-1.216
-1.216
-1.216
-1.216
-1.093
-1.093
-1.093
-1.093
-1.100
-1.100
-1.100
-1.100
-1.209
-1.209
-1.209
-1.209
-1.232
-1.232
-1.232
-1.232
-1.216
-1.216
-1.216
-1.216
-1.147
-1.147
-1.147
-1.147
-1.224
-1.224
-1.224
-1.224
-1.255
-1.255
-1.255
-1.255
-1.278
-1.278
-1.278
-1.278
-1.456
-1.456
-1.456
-1.456
-1.302
-1.302
-1.302
-1.302
-1.309
-1.309
-1.309
-1.309
-1.379
-1.379
-1.379
-1.379
-1.402
-1.402
-1.402
-1.402
-1.317
-1.317
-1.317
-1.317
-1.108
-1.108
-1.108
-1.108
-1.077
-1.077
-1.077
-1.077
-1.147
-1.147
-1.147
-1.147
-1.216
-1.216
-1.216
-1.216
-1.201
-1.201
-1.201
-1.201
-1.131
-1.131
-1.131
-1.131
-1.255
-1.255
-1.255
-1.255
-1.201
-1.201
-1.201
-1.201
-1.317
-1.317
-1.317
-1.317
-1.302
-1.302
-1.302
-1.302
-1.379
-1.379
-1.379
-1.379
-1.201
-1.201
-1.201
-1.201
-1.317
-1.317
-1.317
-1.317
-0.869
-0.869
-0.869
-0.869
-1.139
-1.139
-1.139
-1.139
-1.023
-1.023
-1.023
-1.023
-1.201
-1.201
-1.201
-1.201
-0.907
-0.907
-0.907
-0.907
-1.077
-1.077
-1.077
-1.077
-0.946
-0.946
-0.946
-0.946
-0.969
-0.969
-0.969
-0.969
-1.015
-1.015
-1.015
-1.015
-1.031
-1.031
-1.031
-1.031
-0.930
-0.930
-0.930
-0.930
-0.915
-0.915
-0.915
-0.915
-0.954
-0.954
-0.954
-0.954
-0.961
-0.961
-0.961
-0.961
-0.845
-0.845
-0.845
-0.845
-1.000
-1.000
-1.000
-1.000
-0.807
-0.807
-0.807
-0.807
-0.799
-0.799
-0.799
-0.799
-0.729
-0.729
-0.729
-0.729
-0.776
-0.776
-0.776
-0.776
-0.915
-0.915
-0.915
-0.915
-0.745
-0.745
-0.745
-0.745
-0.830
-0.830
-0.830
-0.830
-0.822
-0.822
-0.822
-0.822
-0.838
-0.838
-0.838
-0.838
-0.776
-0.776
-0.776
-0.776
-0.783
-0.783
-0.783
-0.783
-0.706
-0.706
-0.706
-0.706
-0.884
-0.884
-0.884
-0.884
-0.830
-0.830
-0.830
-0.830
-0.822
-0.822
-0.822
-0.822
-0.869
-0.869
-0.869
-0.869
-0.760
-0.760
-0.760
-0.760
-0.606
-0.606
-0.606
-0.606
-0.838
-0.838
-0.838
-0.838
-0.706
-0.706
-0.706
-0.706
-0.930
-0.930
-0.930
-0.930
-0.559
-0.559
-0.559
-0.559
-0.706
-0.706
-0.706
-0.706
-0.513
-0.513
-0.513
-0.513
-0.760
-0.760
-0.760
-0.760
-0.544
-0.544
-0.544
-0.544
-0.838
-0.838
-0.838
-0.838
-0.652
-0.652
-0.652
-0.652
-0.606
-0.606
-0.606
-0.606
-0.729
-0.729
-0.729
-0.729
-0.799
-0.799
-0.799
-0.799
-0.884
-0.884
-0.884
-0.884
-0.814
-0.814
-0.814
-0.814
-0.637
-0.637
-0.637
-0.637
-0.629
-0.629
-0.629
-0.629
-0.691
-0.691
-0.691
-0.691
-0.729
-0.729
-0.729
-0.729
-0.629
-0.629
-0.629
-0.629
-0.753
-0.753
-0.753
-0.753
-0.629
-0.629
-0.629
-0.629
-0.582
-0.582
-0.582
-0.582
-0.737
-0.737
-0.737
-0.737
-0.822
-0.822
-0.822
-0.822
-0.660
-0.660
-0.660
-0.660
-0.629
-0.629
-0.629
-0.629
-0.791
-0.791
-0.791
-0.791
-0.722
-0.722
-0.722
-0.722
-0.799
-0.799
-0.799
-0.799
-0.915
-0.915
-0.915
-0.915
-0.892
-0.892
-0.892
-0.892
-0.714
-0.714
-0.714
-0.714
-0.629
-0.629
-0.629
-0.629
-0.892
-0.892
-0.892
-0.892
-0.745
-0.745
-0.745
-0.745
-0.551
-0.551
-0.551
-0.551
-0.729
-0.729
-0.729
-0.729
-0.613
-0.613
-0.613
-0.613
-0.884
-0.884
-0.884
-0.884
-0.729
-0.729
-0.729
-0.729
-0.768
-0.768
-0.768
-0.768
-0.652
-0.652
-0.652
-0.652
-0.876
-0.876
-0.876
-0.876
-0.435
-0.435
-0.435
-0.435
-0.814
-0.814
-0.814
-0.814
-0.660
-0.660
-0.660
-0.660
-0.753
-0.753
-0.753
-0.753
-0.652
-0.652
-0.652
-0.652
-0.521
-0.521
-0.521
-0.521
-0.722
-0.722
-0.722
-0.722
-0.869
-0.869
-0.869
-0.869
-0.567
-0.567
-0.567
-0.567
-0.706
-0.706
-0.706
-0.706
-0.536
-0.536
-0.536
-0.536
-0.783
-0.783
-0.783
-0.783
-0.582
-0.582
-0.582
-0.582
-0.590
-0.590
-0.590
-0.590
-0.536
-0.536
-0.536
-0.536
-0.590
-0.590
-0.590
-0.590
-0.521
-0.521
-0.521
-0.521
-0.652
-0.652
-0.652
-0.652
-0.776
-0.776
-0.776
-0.776
-0.753
-0.753
-0.753
-0.753
-0.559
-0.559
-0.559
-0.559
-0.606
-0.606
-0.606
-0.606
-0.435
-0.435
-0.435
-0.435
-0.683
-0.683
-0.683
-0.683
-0.698
-0.698
-0.698
-0.698
-0.606
-0.606
-0.606
-0.606
-0.497
-0.497
-0.497
-0.497
-0.397
-0.397
-0.397
-0.397
-0.528
-0.528
-0.528
-0.528
-0.582
-0.582
-0.582
-0.582
-0.582
-0.582
-0.582
-0.582
-0.265
-0.265
-0.265
-0.265
-0.459
-0.459
-0.459
-0.459
-0.405
-0.405
-0.405
-0.405
-0.451
-0.451
-0.451
-0.451
-0.497
-0.497
-0.497
-0.497
-0.845
-0.845
-0.845
-0.845
-0.521
-0.521
-0.521
-0.521
-0.590
-0.590
-0.590
-0.590
-0.358
-0.358
-0.358
-0.358
-0.675
-0.675
-0.675
-0.675
-0.451
-0.451
-0.451
-0.451
-0.528
-0.528
-0.528
-0.528
-0.312
-0.312
-0.312
-0.312
-0.033
-0.033
-0.033
-0.033
-0.010
-0.010
-0.010
-0.010
-0.312
-0.312
-0.312
-0.312
-0.219
-0.219
-0.219
-0.219
-0.026
-0.026
-0.026
-0.026
0.137
0.137
0.137
0.137
0.284
0.284
0.284
0.284
0.253
0.253
0.253
0.253
-0.258
-0.258
-0.258
-0.258
-0.173
-0.173
-0.173
-0.173
0.175
0.175
0.175
0.175
0.461
0.461
0.461
0.461
0.500
0.500
0.500
0.500
0.670
0.670
0.670
0.670
0.516
0.516
0.516
0.516
0.338
0.338
0.338
0.338
-0.196
-0.196
-0.196
-0.196
-0.296
-0.296
-0.296
-0.296
-0.528
-0.528
-0.528
-0.528
-0.722
-0.722
-0.722
-0.722
-0.776
-0.776
-0.776
-0.776
-0.853
-0.853
-0.853
-0.853
-0.838
-0.838
-0.838
-0.838
-0.675
-0.675
-0.675
-0.675
-0.776
-0.776
-0.776
-0.776
-0.899
-0.899
-0.899
-0.899
-0.513
-0.513
-0.513
-0.513
-0.737
-0.737
-0.737
-0.737
-0.582
-0.582
-0.582
-0.582
-0.683
-0.683
-0.683
-0.683
-0.536
-0.536
-0.536
-0.536
-0.737
-0.737
-0.737
-0.737
-0.304
-0.304
-0.304
-0.304
-0.722
-0.722
-0.722
-0.722
-0.482
-0.482
-0.482
-0.482
-0.490
-0.490
-0.490
-0.490
-0.459
-0.459
-0.459
-0.459
-0.544
-0.544
-0.544
-0.544
-0.474
-0.474
-0.474
-0.474
-0.799
-0.799
-0.799
-0.799
-0.544
-0.544
-0.544
-0.544
-0.505
-0.505
-0.505
-0.505
-0.490
-0.490
-0.490
-0.490
-0.575
-0.575
-0.575
-0.575
-0.412
-0.412
-0.412
-0.412
-0.335
-0.335
-0.335
-0.335
-0.590
-0.590
-0.590
-0.590
-0.567
-0.567
-0.567
-0.567
-0.505
-0.505
-0.505
-0.505
-0.474
-0.474
-0.474
-0.474
-0.366
-0.366
-0.366
-0.366
-0.173
-0.173
-0.173
-0.173
-0.598
-0.598
-0.598
-0.598
-0.582
-0.582
-0.582
-0.582
-0.698
-0.698
-0.698
-0.698
-0.621
-0.621
-0.621
-0.621
-1.881
-1.881
-1.881
-1.881
-2.129
-2.129
-2.129
-2.129
-1.997
-1.997
-1.997
-1.997
-0.621
-0.621
-0.621
-0.621
1.962
1.962
1.962
1.962
7.197
7.197
7.197
7.197
10.746
10.746
10.746
10.746
8.527
8.527
8.527
8.527
10.081
10.081
10.081
10.081
5.588
5.588
5.588
5.588
0.369
0.369
0.369
0.369
-0.845
-0.845
-0.845
-0.845
-2.260
-2.260
-2.260
-2.260
-2.469
-2.469
-2.469
-2.469
-2.763
-2.763
-2.763
-2.763
-2.562
-2.562
-2.562
-2.562
-2.709
-2.709
-2.709
-2.709
-2.113
-2.113
-2.113
-2.113
-2.013
-2.013
-2.013
-2.013
-1.564
-1.564
-1.564
-1.564
-1.549
-1.549
-1.549
-1.549
-1.108
-1.108
-1.108
-1.108
-1.162
-1.162
-1.162
-1.162
-1.108
-1.108
-1.108
-1.108
-1.263
-1.263
-1.263
-1.263
-1.139
-1.139
-1.139
-1.139
-1.155
-1.155
-1.155
-1.155
-1.232
-1.232
-1.232
-1.232
-1.147
-1.147
-1.147
-1.147
-1.302
-1.302
-1.302
-1.302
-1.332
-1.332
-1.332
-1.332
-1.240
-1.240
-1.240
-1.240
-1.224
-1.224
-1.224
-1.224
-1.363
-1.363
-1.363
-1.363
-1.379
-1.379
-1.379
-1.379
-1.518
-1.518
-1.518
-1.518
-1.418
-1.418
-1.418
-1.418
-1.464
-1.464
-1.464
-1.464
-1.062
-1.062
-1.062
-1.062
-1.294
-1.294
-1.294
-1.294
-1.394
-1.394
-1.394
-1.394
-1.255
-1.255
-1.255
-1.255
-1.356
-1.356
-1.356
-1.356
-1.240
-1.240
-1.240
-1.240
-1.186
-1.186
-1.186
-1.186
-1.170
-1.170
-1.170
-1.170
-1.232
-1.232
-1.232
-1.232
-1.371
-1.371
-1.371
-1.371
-1.186
-1.186
-1.186
-1.186
-1.093
-1.093
-1.093
-1.093
-1.124
-1.124
-1.124
-1.124
-1.209
-1.209
-1.209
-1.209
-1.093
-1.093
-1.093
-1.093
-1.387
-1.387
-1.387
-1.387
-1.039
-1.039
-1.039
-1.039
-1.162
-1.162
-1.162
-1.162
-0.876
-0.876
-0.876
-0.876
-1.186
-1.186
-1.186
-1.186
-1.015
-1.015
-1.015
-1.015
-1.147
-1.147
-1.147
-1.147
-0.884
-0.884
-0.884
-0.884
-0.807
-0.807
-0.807
-0.807
-0.760
-0.760
-0.760
-0.760
-1.116
-1.116
-1.116
-1.116
-0.985
-0.985
-0.985
-0.985
-0.923
-0.923
-0.923
-0.923
-0.838
-0.838
-0.838
-0.838
-0.884
-0.884
-0.884
-0.884
-0.930
-0.930
-0.930
-0.930
-0.992
-0.992
-0.992
-0.992
-0.899
-0.899
-0.899
-0.899
-0.930
-0.930
-0.930
-0.930
-0.799
-0.799
-0.799
-0.799
-0.807
-0.807
-0.807
-0.807
-0.892
-0.892
-0.892
-0.892
-0.799
-0.799
-0.799
-0.799
-0.869
-0.869
-0.869
-0.869
-0.722
-0.722
-0.722
-0.722
-0.838
-0.838
-0.838
-0.838
-0.814
-0.814
-0.814
-0.814
-0.899
-0.899
-0.899
-0.899
-0.830
-0.830
-0.830
-0.830
-0.760
-0.760
-0.760
-0.760
-0.776
-0.776
-0.776
-0.776
-0.799
-0.799
-0.799
-0.799
-0.845
-0.845
-0.845
-0.845
-0.899
-0.899
-0.899
-0.899
-0.783
-0.783
-0.783
-0.783
-0.791
-0.791
-0.791
-0.791
-0.667
-0.667
-0.667
-0.667
-0.861
-0.861
-0.861
-0.861
-0.706
-0.706
-0.706
-0.706
-0.861
-0.861
-0.861
-0.861
-0.652
-0.652
-0.652
-0.652
-0.791
-0.791
-0.791
-0.791
-0.582
-0.582
-0.582
-0.582
-0.876
-0.876
-0.876
-0.876
-0.675
-0.675
-0.675
-0.675
-0.822
-0.822
-0.822
-0.822
-0.644
-0.644
-0.644
-0.644
-0.814
-0.814
-0.814
-0.814
-0.691
-0.691
-0.691
-0.691
-0.907
-0.907
-0.907
-0.907
-0.768
-0.768
-0.768
-0.768
-0.791
-0.791
-0.791
-0.791
-0.652
-0.652
-0.652
-0.652
-0.760
-0.760
-0.760
-0.760
-0.753
-0.753
-0.753
-0.753
-0.838
-0.838
-0.838
-0.838
-0.691
-0.691
-0.691
-0.691
-0.722
-0.722
-0.722
-0.722
-0.714
-0.714
-0.714
-0.714
-0.722
-0.722
-0.722
-0.722
-0.807
-0.807
-0.807
-0.807
-0.768
-0.768
-0.768
-0.768
-0.760
-0.760
-0.760
-0.760
-0.714
-0.714
-0.714
-0.714
-0.776
-0.776
-0.776
-0.776
-0.807
-0.807
-0.807
-0.807
-0.861
-0.861
-0.861
-0.861
-0.807
-0.807
-0.807
-0.807
-0.683
-0.683
-0.683
-0.683
-0.683
-0.683
-0.683
-0.683
-0.722
-0.722
-0.722
-0.722
-0.729
-0.729
-0.729
-0.729
-0.760
-0.760
-0.760
-0.760
-0.644
-0.644
-0.644
-0.644
-0.706
-0.706
-0.706
-0.706
-0.606
-0.606
-0.606
-0.606
-0.799
-0.799
-0.799
-0.799
-0.675
-0.675
-0.675
-0.675
-0.814
-0.814
-0.814
-0.814
-0.621
-0.621
-0.621
-0.621
-0.807
-0.807
-0.807
-0.807
-0.637
-0.637
-0.637
-0.637
-0.853
-0.853
-0.853
-0.853
-0.706
-0.706
-0.706
-0.706
-0.830
-0.830
-0.830
-0.830
-0.567
-0.567
-0.567
-0.567
-0.667
-0.667
-0.667
-0.667
-0.582
-0.582
-0.582
-0.582
-0.776
-0.776
-0.776
-0.776
-0.606
-0.606
-0.606
-0.606
-0.621
-0.621
-0.621
-0.621
-0.482
-0.482
-0.482
-0.482
-0.606
-0.606
-0.606
-0.606
-0.621
-0.621
-0.621
-0.621
-0.644
-0.644
-0.644
-0.644
-0.590
-0.590
-0.590
-0.590
-0.575
-0.575
-0.575
-0.575
-0.613
-0.613
-0.613
-0.613
-0.567
-0.567
-0.567
-0.567
-0.683
-0.683
-0.683
-0.683
-0.644
-0.644
-0.644
-0.644
-0.660
-0.660
-0.660
-0.660
-0.459
-0.459
-0.459
-0.459
-0.544
-0.544
-0.544
-0.544
-0.590
-0.590
-0.590
-0.590
-0.598
-0.598
-0.598
-0.598
-0.521
-0.521
-0.521
-0.521
-0.482
-0.482
-0.482
-0.482
-0.474
-0.474
-0.474
-0.474
-0.474
-0.474
-0.474
-0.474
-0.637
-0.637
-0.637
-0.637
-0.637
-0.637
-0.637
-0.637
-0.497
-0.497
-0.497
-0.497
-0.582
-0.582
-0.582
-0.582
-0.497
-0.497
-0.497
-0.497
-0.691
-0.691
-0.691
-0.691
-0.567
-0.567
-0.567
-0.567
-0.753
-0.753
-0.753
-0.753
-0.466
-0.466
-0.466
-0.466
-0.621
-0.621
-0.621
-0.621
-0.505
-0.505
-0.505
-0.505
-0.652
-0.652
-0.652
-0.652
-0.265
-0.265
-0.265
-0.265
-0.389
-0.389
-0.389
-0.389
-0.041
-0.041
-0.041
-0.041
-0.180
-0.180
-0.180
-0.180
-0.064
-0.064
-0.064
-0.064
-0.149
-0.149
-0.149
-0.149
0.044
0.044
0.044
0.044
0.152
0.152
0.152
0.152
0.446
0.446
0.446
0.446
-0.072
-0.072
-0.072
-0.072
-0.196
-0.196
-0.196
-0.196
-0.149
-0.149
-0.149
-0.149
0.199
0.199
0.199
0.199
0.461
0.461
0.461
0.461
0.693
0.693
0.693
0.693
0.415
0.415
0.415
0.415
0.160
0.160
0.160
0.160
-0.312
-0.312
-0.312
-0.312
-0.242
-0.242
-0.242
-0.242
-0.459
-0.459
-0.459
-0.459
-0.737
-0.737
-0.737
-0.737
-0.753
-0.753
-0.753
-0.753
-0.845
-0.845
-0.845
-0.845
-0.807
-0.807
-0.807
-0.807
-0.745
-0.745
-0.745
-0.745
-0.783
-0.783
-0.783
-0.783
-0.791
-0.791
-0.791
-0.791
-0.838
-0.838
-0.838
-0.838
-0.822
-0.822
-0.822
-0.822
-0.598
-0.598
-0.598
-0.598
-0.590
-0.590
-0.590
-0.590
-0.521
-0.521
-0.521
-0.521
-0.683
-0.683
-0.683
-0.683
-0.536
-0.536
-0.536
-0.536
-0.590
-0.590
-0.590
-0.590
-0.374
-0.374
-0.374
-0.374
-0.482
-0.482
-0.482
-0.482
-0.366
-0.366
-0.366
-0.366
-0.629
-0.629
-0.629
-0.629
-0.420
-0.420
-0.420
-0.420
-0.582
-0.582
-0.582
-0.582
-0.327
-0.327
-0.327
-0.327
-0.567
-0.567
-0.567
-0.567
-0.366
-0.366
-0.366
-0.366
-0.606
-0.606
-0.606
-0.606
-0.451
-0.451
-0.451
-0.451
-0.459
-0.459
-0.459
-0.459
-0.381
-0.381
-0.381
-0.381
-0.466
-0.466
-0.466
-0.466
-0.505
-0.505
-0.505
-0.505
-0.590
-0.590
-0.590
-0.590
-0.490
-0.490
-0.490
-0.490
-0.258
-0.258
-0.258
-0.258
-0.567
-0.567
-0.567
-0.567
-0.366
-0.366
-0.366
-0.366
-0.667
-0.667
-0.667
-0.667
-0.652
-0.652
-0.652
-0.652
-1.704
-1.704
-1.704
-1.704
-2.129
-2.129
-2.129
-2.129
-1.804
-1.804
-1.804
-1.804
-0.644
-0.644
-0.644
-0.644
1.954
1.954
1.954
1.954
6.872
6.872
6.872
6.872
11.411
11.411
11.411
11.411
10.421
10.421
10.421
10.421
11.921
11.921
11.921
11.921
6.856
6.856
6.856
6.856
0.763
0.763
0.763
0.763
-1.193
-1.193
-1.193
-1.193
-2.461
-2.461
-2.461
-2.461
-2.840
-2.840
-2.840
-2.840
-3.266
-3.266
-3.266
-3.266
-3.227
-3.227
-3.227
-3.227
-3.188
-3.188
-3.188
-3.188
-2.624
-2.624
-2.624
-2.624
-2.384
-2.384
-2.384
-2.384
-1.897
-1.897
-1.897
-1.897
-1.858
-1.858
-1.858
-1.858
-1.510
-1.510
-1.510
-1.510
-1.541
-1.541
-1.541
-1.541
-1.232
-1.232
-1.232
-1.232
-1.317
-1.317
-1.317
-1.317
-1.278
-1.278
-1.278
-1.278
-1.402
-1.402
-1.402
-1.402
-1.247
-1.247
-1.247
-1.247
-1.278
-1.278
-1.278
-1.278
-1.193
-1.193
-1.193
-1.193
-1.278
-1.278
-1.278
-1.278
-1.325
-1.325
-1.325
-1.325
-1.348
-1.348
-1.348
-1.348
-1.302
-1.302
-1.302
-1.302
-1.271
-1.271
-1.271
-1.271
-1.348
-1.348
-1.348
-1.348
-1.387
-1.387
-1.387
-1.387
-1.448
-1.448
-1.448
-1.448
-1.363
-1.363
-1.363
-1.363
-1.371
-1.371
-1.371
-1.371
-1.278
-1.278
-1.278
-1.278
-1.348
-1.348
-1.348
-1.348
-1.317
-1.317
-1.317
-1.317
-1.309
-1.309
-1.309
-1.309
-1.193
-1.193
-1.193
-1.193
-1.186
-1.186
-1.186
-1.186
-1.186
-1.186
-1.186
-1.186
-1.139
-1.139
-1.139
-1.139
-1.302
-1.302
-1.302
-1.302
-1.224
-1.224
-1.224
-1.224
-1.100
-1.100
-1.100
-1.100
-1.209
-1.209
-1.209
-1.209
-1.077
-1.077
-1.077
-1.077
-1.255
-1.255
-1.255
-1.255
-1.124
-1.124
-1.124
-1.124
-1.232
-1.232
-1.232
-1.232
-0.884
-0.884
-0.884
-0.884
-1.116
-1.116
-1.116
-1.116
-0.915
-0.915
-0.915
-0.915
-1.170
-1.170
-1.170
-1.170
-0.899
-0.899
-0.899
-0.899
-1.039
-1.039
-1.039
-1.039
-0.830
-0.830
-0.830
-0.830
-0.992
-0.992
-0.992
-0.992
-0.822
-0.822
-0.822
-0.822
-0.992
-0.992
-0.992
-0.992
-0.869
-0.869
-0.869
-0.869
-0.884
-0.884
-0.884
-0.884
-0.783
-0.783
-0.783
-0.783
-0.930
-0.930
-0.930
-0.930
-0.899
-0.899
-0.899
-0.899
-0.938
-0.938
-0.938
-0.938
-0.814
-0.814
-0.814
-0.814
-0.714
-0.714
-0.714
-0.714
-0.807
-0.807
-0.807
-0.807
-0.799
-0.799
-0.799
-0.799
-0.853
-0.853
-0.853
-0.853
-0.753
-0.753
-0.753
-0.753
-0.783
-0.783
-0.783
-0.783
-0.660
-0.660
-0.660
-0.660
-0.783
-0.783
-0.783
-0.783
-0.783
-0.783
-0.783
-0.783
-0.776
-0.776
-0.776
-0.776
-0.760
-0.760
-0.760
-0.760
-0.691
-0.691
-0.691
-0.691
-0.783
-0.783
-0.783
-0.783
-0.783
-0.783
-0.783
-0.783
-0.838
-0.838
-0.838
-0.838
-0.807
-0.807
-0.807
-0.807
-0.706
-0.706
-0.706
-0.706
-0.729
-0.729
-0.729
-0.729
-0.652
-0.652
-0.652
-0.652
-0.892
-0.892
-0.892
-0.892
-0.629
-0.629
-0.629
-0.629
-0.753
-0.753
-0.753
-0.753
-0.528
-0.528
-0.528
-0.528
-0.722
-0.722
-0.722
-0.722
-0.567
-0.567
-0.567
-0.567
-0.861
-0.861
-0.861
-0.861
-0.582
-0.582
-0.582
-0.582
-0.776
-0.776
-0.776
-0.776
-0.544
-0.544
-0.544
-0.544
-0.838
-0.838
-0.838
-0.838
-0.698
-0.698
-0.698
-0.698
-0.845
-0.845
-0.845
-0.845
-0.667
-0.667
-0.667
-0.667
-0.691
-0.691
-0.691
-0.691
-0.621
-0.621
-0.621
-0.621
-0.753
-0.753
-0.753
-0.753
-0.722
-0.722
-0.722
-0.722
-0.675
-0.675
-0.675
-0.675
-0.652
-0.652
-0.652
-0.652
-0.621
-0.621
-0.621
-0.621
-0.698
-0.698
-0.698
-0.698
-0.606
-0.606
-0.606
-0.606
-0.799
-0.799
-0.799
-0.799
-0.675
-0.675
-0.675
-0.675
-0.714
-0.714
-0.714
-0.714
-0.729
-0.729
-0.729
-0.729
-0.814
-0.814
-0.814
-0.814
-0.838
-0.838
-0.838
-0.838
-0.783
-0.783
-0.783
-0.783
-0.783
-0.783
-0.783
-0.783
-0.590
-0.590
-0.590
-0.590
-0.683
-0.683
-0.683
-0.683
-0.667
-0.667
-0.667
-0.667
-0.714
-0.714
-0.714
-0.714
-0.667
-0.667
-0.667
-0.667
-0.598
-0.598
-0.598
-0.598
-0.660
-0.660
-0.660
-0.660
-0.559
-0.559
-0.559
-0.559
-0.768
-0.768
-0.768
-0.768
-0.582
-0.582
-0.582
-0.582
-0.807
-0.807
-0.807
-0.807
-0.536
-0.536
-0.536
-0.536
-0.799
-0.799
-0.799
-0.799
-0.590
-0.590
-0.590
-0.590
-0.884
-0.884
-0.884
-0.884
-0.660
-0.660
-0.660
-0.660
-0.745
-0.745
-0.745
-0.745
-0.521
-0.521
-0.521
-0.521
-0.737
-0.737
-0.737
-0.737
-0.606
-0.606
-0.606
-0.606
-0.698
-0.698
-0.698
-0.698
-0.528
-0.528
-0.528
-0.528
-0.598
-0.598
-0.598
-0.598
-0.490
-0.490
-0.490
-0.490
-0.559
-0.559
-0.559
-0.559
-0.621
-0.621
-0.621
-0.621
-0.590
-0.590
-0.590
-0.590
-0.559
-0.559
-0.559
-0.559
-0.536
-0.536
-0.536
-0.536
-0.613
-0.613
-0.613
-0.613
-0.559
-0.559
-0.559
-0.559
-0.691
-0.691
-0.691
-0.691
-0.559
-0.559
-0.559
-0.559
-0.513
-0.513
-0.513
-0.513
-0.474
-0.474
-0.474
-0.474
-0.551
-0.551
-0.551
-0.551
-0.575
-0.575
-0.575
-0.575
-0.528
-0.528
-0.528
-0.528
-0.513
-0.513
-0.513
-0.513
-0.389
-0.389
-0.389
-0.389
-0.466
-0.466
-0.466
-0.466
-0.451
-0.451
-0.451
-0.451
-0.598
-0.598
-0.598
-0.598
-0.490
-0.490
-0.490
-0.490
-0.459
-0.459
-0.459
-0.459
-0.497
-0.497
-0.497
-0.497
-0.474
-0.474
-0.474
-0.474
-0.691
-0.691
-0.691
-0.691
-0.466
-0.466
-0.466
-0.466
-0.660
-0.660
-0.660
-0.660
-0.250
-0.250
-0.250
-0.250
-0.466
-0.466
-0.466
-0.466
-0.103
-0.103
-0.103
-0.103
-0.320
-0.320
-0.320
-0.320
0.114
0.114
0.114
0.114
-0.103
-0.103
-0.103
-0.103
0.152
0.152
0.152
0.152
0.013
0.013
0.013
0.013
0.268
0.268
0.268
0.268
0.322
0.322
0.322
0.322
0.577
0.577
0.577
0.577
0.044
0.044
0.044
0.044
0.160
0.160
0.160
0.160
0.106
0.106
0.106
0.106
0.253
0.253
0.253
0.253
0.492
0.492
0.492
0.492
0.763
0.763
0.763
0.763
0.639
0.639
0.639
0.639
0.168
0.168
0.168
0.168
-0.211
-0.211
-0.211
-0.211
-0.196
-0.196
-0.196
-0.196
-0.412
-0.412
-0.412
-0.412
-0.613
-0.613
-0.613
-0.613
-0.559
-0.559
-0.559
-0.559
-0.760
-0.760
-0.760
-0.760
-0.791
-0.791
-0.791
-0.791
-0.737
-0.737
-0.737
-0.737
-0.714
-0.714
-0.714
-0.714
-0.652
-0.652
-0.652
-0.652
-0.776
-0.776
-0.776
-0.776
-0.698
-0.698
-0.698
-0.698
-0.667
-0.667
-0.667
-0.667
-0.551
-0.551
-0.551
-0.551
-0.482
-0.482
-0.482
-0.482
-0.582
-0.582
-0.582
-0.582
-0.505
-0.505
-0.505
-0.505
-0.683
-0.683
-0.683
-0.683
-0.397
-0.397
-0.397
-0.397
-0.567
-0.567
-0.567
-0.567
-0.273
-0.273
-0.273
-0.273
-0.575
-0.575
-0.575
-0.575
-0.327
-0.327
-0.327
-0.327
-0.675
-0.675
-0.675
-0.675
-0.350
-0.350
-0.350
-0.350
-0.551
-0.551
-0.551
-0.551
-0.273
-0.273
-0.273
-0.273
-0.575
-0.575
-0.575
-0.575
-0.443
-0.443
-0.443
-0.443
-0.497
-0.497
-0.497
-0.497
-0.443
-0.443
-0.443
-0.443
-0.350
-0.350
-0.350
-0.350
-0.343
-0.343
-0.343
-0.343
-0.459
-0.459
-0.459
-0.459
-0.405
-0.405
-0.405
-0.405
-0.281
-0.281
-0.281
-0.281
-0.435
-0.435
-0.435
-0.435
-0.142
-0.142
-0.142
-0.142
-0.304
-0.304
-0.304
-0.304
-0.374
-0.374
-0.374
-0.374
-1.464
-1.464
-1.464
-1.464
-1.634
-1.634
-1.634
-1.634
-0.992
-0.992
-0.992
-0.992
0.523
0.523
0.523
0.523
3.323
3.323
3.323
3.323
8.519
8.519
8.519
8.519
11.983
11.983
11.983
11.983
11.179
11.179
11.179
11.179
11.705
11.705
11.705
11.705
6.037
6.037
6.037
6.037
0.376
0.376
0.376
0.376
-1.425
-1.425
-1.425
-1.425
-2.492
-2.492
-2.492
-2.492
-2.802
-2.802
-2.802
-2.802
-3.134
-3.134
-3.134
-3.134
-3.119
-3.119
-3.119
-3.119
-3.188
-3.188
-3.188
-3.188
-2.523
-2.523
-2.523
-2.523
-2.315
-2.315
-2.315
-2.315
-1.642
-1.642
-1.642
-1.642
-1.719
-1.719
-1.719
-1.719
-1.294
-1.294
-1.294
-1.294
-1.557
-1.557
-1.557
-1.557
-1.224
-1.224
-1.224
-1.224
-1.356
-1.356
-1.356
-1.356
-1.131
-1.131
-1.131
-1.131
-1.286
-1.286
-1.286
-1.286
-1.178
-1.178
-1.178
-1.178
-1.240
-1.240
-1.240
-1.240
-1.170
-1.170
-1.170
-1.170
-1.131
-1.131
-1.131
-1.131
-1.162
-1.162
-1.162
-1.162
-1.247
-1.247
-1.247
-1.247
-1.302
-1.302
-1.302
-1.302
-1.224
-1.224
-1.224
-1.224
-1.216
-1.216
-1.216
-1.216
-1.178
-1.178
-1.178
-1.178
-1.325
-1.325
-1.325
-1.325
-1.263
-1.263
-1.263
-1.263
-1.325
-1.325
-1.325
-1.325
-1.240
-1.240
-1.240
-1.240
-1.193
-1.193
-1.193
-1.193
-1.209
-1.209
-1.209
-1.209
-1.263
-1.263
-1.263
-1.263
-1.325
-1.325
-1.325
-1.325
-1.147
-1.147
-1.147
-1.147
-1.139
-1.139
-1.139
-1.139
-1.023
-1.023
-1.023
-1.023
-1.147
-1.147
-1.147
-1.147
-1.124
-1.124
-1.124
-1.124
-1.147
-1.147
-1.147
-1.147
-1.093
-1.093
-1.093
-1.093
-0.985
-0.985
-0.985
-0.985
-1.093
-1.093
-1.093
-1.093
-1.054
-1.054
-1.054
-1.054
-1.216
-1.216
-1.216
-1.216
-0.977
-0.977
-0.977
-0.977
-1.085
-1.085
-1.085
-1.085
-0.776
-0.776
-0.776
-0.776
-1.131
-1.131
-1.131
-1.131
-0.822
-0.822
-0.822
-0.822
-1.023
-1.023
-1.023
-1.023
-0.737
-0.737
-0.737
-0.737
-0.915
-0.915
-0.915
-0.915
-0.706
-0.706
-0.706
-0.706
-0.869
-0.869
-0.869
-0.869
-0.884
-0.884
-0.884
-0.884
-0.853
-0.853
-0.853
-0.853
-0.791
-0.791
-0.791
-0.791
-0.768
-0.768
-0.768
-0.768
-0.745
-0.745
-0.745
-0.745
-0.807
-0.807
-0.807
-0.807
-0.915
-0.915
-0.915
-0.915
-0.822
-0.822
-0.822
-0.822
-0.791
-0.791
-0.791
-0.791
-0.660
-0.660
-0.660
-0.660
-0.776
-0.776
-0.776
-0.776
-0.745
-0.745
-0.745
-0.745
-0.799
-0.799
-0.799
-0.799
-0.737
-0.737
-0.737
-0.737
-0.637
-0.637
-0.637
-0.637
-0.691
-0.691
-0.691
-0.691
-0.760
-0.760
-0.760
-0.760
-0.814
-0.814
-0.814
-0.814
-0.729
-0.729
-0.729
-0.729
-0.776
-0.776
-0.776
-0.776
-0.660
-0.660
-0.660
-0.660
-0.799
-0.799
-0.799
-0.799
-0.760
-0.760
-0.760
-0.760
-0.838
-0.838
-0.838
-0.838
-0.799
-0.799
-0.799
-0.799
-0.606
-0.606
-0.606
-0.606
-0.807
-0.807
-0.807
-0.807
-0.660
-0.660
-0.660
-0.660
-0.845
-0.845
-0.845
-0.845
-0.590
-0.590
-0.590
-0.590
-0.799
-0.799
-0.799
-0.799
-0.497
-0.497
-0.497
-0.497
-0.869
-0.869
-0.869
-0.869
-0.683
-0.683
-0.683
-0.683
-0.915
-0.915
-0.915
-0.915
-0.598
-0.598
-0.598
-0.598
-0.760
-0.760
-0.760
-0.760
-0.660
-0.660
-0.660
-0.660
-0.861
-0.861
-0.861
-0.861
-0.745
-0.745
-0.745
-0.745
-0.807
-0.807
-0.807
-0.807
-0.760
-0.760
-0.760
-0.760
-0.660
-0.660
-0.660
-0.660
-0.675
-0.675
-0.675
-0.675
-0.745
-0.745
-0.745
-0.745
-0.783
-0.783
-0.783
-0.783
-0.613
-0.613
-0.613
-0.613
-0.722
-0.722
-0.722
-0.722
-0.621
-0.621
-0.621
-0.621
-0.745
-0.745
-0.745
-0.745
-0.714
-0.714
-0.714
-0.714
-0.768
-0.768
-0.768
-0.768
-0.698
-0.698
-0.698
-0.698
-0.698
-0.698
-0.698
-0.698
-0.776
-0.776
-0.776
-0.776
-0.729
-0.729
-0.729
-0.729
-0.884
-0.884
-0.884
-0.884
-0.768
-0.768
-0.768
-0.768
-0.776
-0.776
-0.776
-0.776
-0.621
-0.621
-0.621
-0.621
-0.737
-0.737
-0.737
-0.737
-0.683
-0.683
-0.683
-0.683
-0.660
-0.660
-0.660
-0.660
-0.722
-0.722
-0.722
-0.722
-0.590
-0.590
-0.590
-0.590
-0.675
-0.675
-0.675
-0.675
-0.590
-0.590
-0.590
-0.590
-0.861
-0.861
-0.861
-0.861
-0.567
-0.567
-0.567
-0.567
-0.791
-0.791
-0.791
-0.791
-0.528
-0.528
-0.528
-0.528
-0.915
-0.915
-0.915
-0.915
-0.637
-0.637
-0.637
-0.637
-0.899
-0.899
-0.899
-0.899
-0.590
-0.590
-0.590
-0.590
-0.683
-0.683
-0.683
-0.683
-0.567
-0.567
-0.567
-0.567
-0.745
-0.745
-0.745
-0.745
-0.637
-0.637
-0.637
-0.637
-0.621
-0.621
-0.621
-0.621
-0.582
-0.582
-0.582
-0.582
-0.521
-0.521
-0.521
-0.521
-0.575
-0.575
-0.575
-0.575
-0.613
-0.613
-0.613
-0.613
-0.683
-0.683
-0.683
-0.683
-0.613
-0.613
-0.613
-0.613
-0.590
-0.590
-0.590
-0.590
-0.544
-0.544
-0.544
-0.544
-0.629
-0.629
-0.629
-0.629
-0.667
-0.667
-0.667
-0.667
-0.637
-0.637
-0.637
-0.637
-0.613
-0.613
-0.613
-0.613
-0.443
-0.443
-0.443
-0.443
-0.551
-0.551
-0.551
-0.551
-0.544
-0.544
-0.544
-0.544
-0.621
-0.621
-0.621
-0.621
-0.474
-0.474
-0.474
-0.474
-0.521
-0.521
-0.521
-0.521
-0.397
-0.397
-0.397
-0.397
-0.551
-0.551
-0.551
-0.551
-0.559
-0.559
-0.559
-0.559
-0.575
-0.575
-0.575
-0.575
-0.528
-0.528
-0.528
-0.528
-0.405
-0.405
-0.405
-0.405
-0.559
-0.559
-0.559
-0.559
-0.505
-0.505
-0.505
-0.505
-0.768
-0.768
-0.768
-0.768
-0.466
-0.466
-0.466
-0.466
-0.582
-0.582
-0.582
-0.582
-0.204
-0.204
-0.204
-0.204
-0.482
-0.482
-0.482
-0.482
-0.026
-0.026
-0.026
-0.026
-0.180
-0.180
-0.180
-0.180
0.075
0.075
0.075
0.075
0.021
0.021
0.021
0.021
0.137
0.137
0.137
0.137
0.199
0.199
0.199
0.199
0.562
0.562
0.562
0.562
0.183
0.183
0.183
0.183
-0.041
-0.041
-0.041
-0.041
0.098
0.098
0.098
0.098
0.230
0.230
0.230
0.230
0.384
0.384
0.384
0.384
0.500
0.500
0.500
0.500
0.539
0.539
0.539
0.539
0.423
0.423
0.423
0.423
-0.111
-0.111
-0.111
-0.111
-0.289
-0.289
-0.289
-0.289
-0.289
-0.289
-0.289
-0.289
-0.637
-0.637
-0.637
-0.637
-0.644
-0.644
-0.644
-0.644
-0.691
-0.691
-0.691
-0.691
-0.776
-0.776
-0.776
-0.776
-0.814
-0.814
-0.814
-0.814
-0.869
-0.869
-0.869
-0.869
-0.729
-0.729
-0.729
-0.729
-0.729
-0.729
-0.729
-0.729
-0.714
-0.714
-0.714
-0.714
-0.729
-0.729
-0.729
-0.729
-0.652
-0.652
-0.652
-0.652
-0.652
-0.652
-0.652
-0.652
-0.660
-0.660
-0.660
-0.660
-0.451
-0.451
-0.451
-0.451
-0.652
-0.652
-0.652
-0.652
-0.466
-0.466
-0.466
-0.466
-0.644
-0.644
-0.644
-0.644
-0.343
-0.343
-0.343
-0.343
-0.567
-0.567
-0.567
-0.567
-0.304
-0.304
-0.304
-0.304
-0.613
-0.613
-0.613
-0.613
-0.420
-0.420
-0.420
-0.420
-0.582
-0.582
-0.582
-0.582
-0.350
-0.350
-0.350
-0.350
-0.536
-0.536
-0.536
-0.536
-0.374
-0.374
-0.374
-0.374
-0.551
-0.551
-0.551
-0.551
-0.497
-0.497
-0.497
-0.497
-0.567
-0.567
-0.567
-0.567
-0.435
-0.435
-0.435
-0.435
-0.459
-0.459
-0.459
-0.459
-0.513
-0.513
-0.513
-0.513
-0.350
-0.350
-0.350
-0.350
-0.466
-0.466
-0.466
-0.466
-0.196
-0.196
-0.196
-0.196
-0.296
-0.296
-0.296
-0.296
-0.227
-0.227
-0.227
-0.227
-0.861
-0.861
-0.861
-0.861
-1.735
-1.735
-1.735
-1.735
-1.216
-1.216
-1.216
-1.216
-0.497
-0.497
-0.497
-0.497
2.093
2.093
2.093
2.093
5.998
5.998
5.998
5.998
11.604
11.604
11.604
11.604
10.143
10.143
10.143
10.143
12.671
12.671
12.671
12.671
8.380
8.380
8.380
8.380
2.109
2.109
2.109
2.109
-0.838
-0.838
-0.838
-0.838
-2.052
-2.052
-2.052
-2.052
-2.655
-2.655
-2.655
-2.655
-2.995
-2.995
-2.995
-2.995
-2.956
-2.956
-2.956
-2.956
-3.072
-3.072
-3.072
-3.072
-2.601
-2.601
-2.601
-2.601
-2.461
-2.461
-2.461
-2.461
-1.804
-1.804
-1.804
-1.804
-1.727
-1.727
-1.727
-1.727
-1.186
-1.186
-1.186
-1.186
-1.534
-1.534
-1.534
-1.534
-1.232
-1.232
-1.232
-1.232
-1.402
-1.402
-1.402
-1.402
-1.209
-1.209
-1.209
-1.209
-1.263
-1.263
-1.263
-1.263
-1.147
-1.147
-1.147
-1.147
-1.317
-1.317
-1.317
-1.317
-1.240
-1.240
-1.240
-1.240
-1.224
-1.224
-1.224
-1.224
-1.147
-1.147
-1.147
-1.147
-1.147
-1.147
-1.147
-1.147
-1.302
-1.302
-1.302
-1.302
-1.286
-1.286
-1.286
-1.286
-1.302
-1.302
-1.302
-1.302
-1.278
-1.278
-1.278
-1.278
-1.255
-1.255
-1.255
-1.255
-1.340
-1.340
-1.340
-1.340
-1.348
-1.348
-1.348
-1.348
-1.363
-1.363
-1.363
-1.363
-1.263
-1.263
-1.263
-1.263
-1.271
-1.271
-1.271
-1.271
-1.155
-1.155
-1.155
-1.155
-1.232
-1.232
-1.232
-1.232
-1.178
-1.178
-1.178
-1.178
-1.294
-1.294
-1.294
-1.294
-1.131
-1.131
-1.131
-1.131
-1.046
-1.046
-1.046
-1.046
-1.162
-1.162
-1.162
-1.162
-1.131
-1.131
-1.131
-1.131
-1.155
-1.155
-1.155
-1.155
-1.162
-1.162
-1.162
-1.162
-1.093
-1.093
-1.093
-1.093
-1.077
-1.077
-1.077
-1.077
-1.216
-1.216
-1.216
-1.216
-0.961
-0.961
-0.961
-0.961
-1.209
-1.209
-1.209
-1.209
-0.892
-0.892
-0.892
-0.892
-1.108
-1.108
-1.108
-1.108
-0.783
-0.783
-0.783
-0.783
-1.139
-1.139
-1.139
-1.139
-0.946
-0.946
-0.946
-0.946
-1.031
-1.031
-1.031
-1.031
-0.853
-0.853
-0.853
-0.853
-0.899
-0.899
-0.899
-0.899
-0.791
-0.791
-0.791
-0.791
-1.000
-1.000
-1.000
-1.000
-0.845
-0.845
-0.845
-0.845
-0.869
-0.869
-0.869
-0.869
-0.768
-0.768
-0.768
-0.768
-0.845
-0.845
-0.845
-0.845
-0.892
-0.892
-0.892
-0.892
-0.845
-0.845
-0.845
-0.845
-0.861
-0.861
-0.861
-0.861
-0.760
-0.760
-0.760
-0.760
-0.729
-0.729
-0.729
-0.729
-0.861
-0.861
-0.861
-0.861
-0.892
-0.892
-0.892
-0.892
-0.776
-0.776
-0.776
-0.776
-0.598
-0.598
-0.598
-0.598
-0.791
-0.791
-0.791
-0.791
-0.575
-0.575
-0.575
-0.575
-0.660
-0.660
-0.660
-0.660
-0.760
-0.760
-0.760
-0.760
-0.853
-0.853
-0.853
-0.853
-0.807
-0.807
-0.807
-0.807
-0.644
-0.644
-0.644
-0.644
-0.683
-0.683
-0.683
-0.683
-0.814
-0.814
-0.814
-0.814
-0.915
-0.915
-0.915
-0.915
-0.753
-0.753
-0.753
-0.753
-0.644
-0.644
-0.644
-0.644
-0.606
-0.606
-0.606
-0.606
-0.753
-0.753
-0.753
-0.753
-0.528
-0.528
-0.528
-0.528
-0.791
-0.791
-0.791
-0.791
-0.567
-0.567
-0.567
-0.567
-0.722
-0.722
-0.722
-0.722
-0.497
-0.497
-0.497
-0.497
-0.814
-0.814
-0.814
-0.814
-0.683
-0.683
-0.683
-0.683
-0.892
-0.892
-0.892
-0.892
-0.513
-0.513
-0.513
-0.513
-0.869
-0.869
-0.869
-0.869
-0.799
-0.799
-0.799
-0.799
-0.621
-0.621
-0.621
-0.621
-0.722
-0.722
-0.722
-0.722
-0.753
-0.753
-0.753
-0.753
-0.776
-0.776
-0.776
-0.776
-0.745
-0.745
-0.745
-0.745
-0.729
-0.729
-0.729
-0.729
-0.760
-0.760
-0.760
-0.760
-0.783
-0.783
-0.783
-0.783
-0.667
-0.667
-0.667
-0.667
-0.544
-0.544
-0.544
-0.544
-0.575
-0.575
-0.575
-0.575
-0.567
-0.567
-0.567
-0.567
-0.691
-0.691
-0.691
-0.691
-0.652
-0.652
-0.652
-0.652
-0.783
-0.783
-0.783
-0.783
-0.582
-0.582
-0.582
-0.582
-0.838
-0.838
-0.838
-0.838
-0.822
-0.822
